0.000000000000 -48.000000000000
0.000000000000 -42.000000000000
0.000000000000 -36.000000000000
0.000000000000 -30.000000000000
0.000000000000 -24.000000000000
0.000000000000 -22.000000000000
0.000000000000 -20.000000000000
0.000000000000 -18.000000000000
0.000000000000 -16.000000000000
0.000000000000 -14.000000000000
0.000000000000 -12.000000000000
0.000000000000 -10.000000000000
0.000000000000 -8.000000000000
0.000000000000 -7.533333333333
0.000000000000 -7.066666666667
0.000000000000 -6.600000000000
0.000000000000 -6.133333333333
0.000000000000 -5.666666666667
0.000000000000 -5.200000000000
0.000000000000 -4.733333333333
0.000000000000 -4.266666666667
0.000000000000 -3.800000000000
0.000000000000 -3.333333333333
0.000000000000 -2.866666666667
0.000000000000 -2.400000000000
0.000000000000 -1.933333333333
0.000000000000 -1.466666666667
0.000000000000 -1.000000000000
0.000000000000 -0.950214989876
0.000000000000 -0.900666572453
0.000000000000 -0.851365376462
0.000000000000 -0.802323092133
0.000000000000 -0.753552642079
0.000000000000 -0.705068391357
0.000000000000 -0.656886408743
0.000000000000 -0.609024795931
0.000000000000 -0.561504108464
0.000000000000 -0.514347903027
0.000000000000 -0.467583462777
0.000000000000 -0.421242780245
0.000000000000 -0.375363924425
0.000000000000 -0.329993002221
0.000000000000 -0.285187080642
0.000000000000 -0.241018748334
0.000000000000 -0.197583672716
0.000000000000 -0.155014146033
0.000000000000 -0.113506188896
0.000000000000 -0.073383623210
0.000000000000 -0.035301637755
0.000000000000 -0.002000000000
0.000000000000 -0.001952380952
0.000000000000 -0.001904761905
0.000000000000 -0.001857142857
0.000000000000 -0.001809523810
0.000000000000 -0.001761904762
0.000000000000 -0.001714285714
0.000000000000 -0.001666666667
0.000000000000 -0.001619047619
0.000000000000 -0.001571428571
0.000000000000 -0.001523809524
0.000000000000 -0.001476190476
0.000000000000 -0.001428571429
0.000000000000 -0.001380952381
0.000000000000 -0.001333333333
0.000000000000 -0.001285714286
0.000000000000 -0.001238095238
0.000000000000 -0.001190476190
0.000000000000 -0.001142857143
0.000000000000 -0.001095238095
0.000000000000 -0.001047619048
0.000000000000 -0.001000000000
0.000000000000 -0.000952380952
0.000000000000 -0.000904761905
0.000000000000 -0.000857142857
0.000000000000 -0.000809523810
0.000000000000 -0.000761904762
0.000000000000 -0.000714285714
0.000000000000 -0.000666666667
0.000000000000 -0.000619047619
0.000000000000 -0.000571428571
0.000000000000 -0.000523809524
0.000000000000 -0.000476190476
0.000000000000 -0.000428571429
0.000000000000 -0.000380952381
0.000000000000 -0.000333333333
0.000000000000 -0.000285714286
0.000000000000 -0.000238095238
0.000000000000 -0.000190476190
0.000000000000 -0.000142857143
0.000000000000 -0.000095238095
0.000000000000 -0.000047619048
0.000000000000 0.000000000000
0.000000000000 0.000047619048
0.000000000000 0.000095238095
0.000000000000 0.000142857143
0.000000000000 0.000190476190
0.000000000000 0.000238095238
0.000000000000 0.000285714286
0.000000000000 0.000333333333
0.000000000000 0.000380952381
0.000000000000 0.000428571429
0.000000000000 0.000476190476
0.000000000000 0.000523809524
0.000000000000 0.000571428571
0.000000000000 0.000619047619
0.000000000000 0.000666666667
0.000000000000 0.000714285714
0.000000000000 0.000761904762
0.000000000000 0.000809523810
0.000000000000 0.000857142857
0.000000000000 0.000904761905
0.000000000000 0.000952380952
0.000000000000 0.001000000000
0.000000000000 0.001047619048
0.000000000000 0.001095238095
0.000000000000 0.001142857143
0.000000000000 0.001190476190
0.000000000000 0.001238095238
0.000000000000 0.001285714286
0.000000000000 0.001333333333
0.000000000000 0.001380952381
0.000000000000 0.001428571429
0.000000000000 0.001476190476
0.000000000000 0.001523809524
0.000000000000 0.001571428571
0.000000000000 0.001619047619
0.000000000000 0.001666666667
0.000000000000 0.001714285714
0.000000000000 0.001761904762
0.000000000000 0.001809523810
0.000000000000 0.001857142857
0.000000000000 0.001904761905
0.000000000000 0.001952380952
0.000000000000 0.002000000000
0.000000000000 0.035301637755
0.000000000000 0.073383623210
0.000000000000 0.113506188896
0.000000000000 0.155014146033
0.000000000000 0.197583672716
0.000000000000 0.241018748334
0.000000000000 0.285187080642
0.000000000000 0.329993002221
0.000000000000 0.375363924425
0.000000000000 0.421242780245
0.000000000000 0.467583462777
0.000000000000 0.514347903027
0.000000000000 0.561504108464
0.000000000000 0.609024795931
0.000000000000 0.656886408743
0.000000000000 0.705068391357
0.000000000000 0.753552642079
0.000000000000 0.802323092133
0.000000000000 0.851365376462
0.000000000000 0.900666572453
0.000000000000 0.950214989876
0.000000000000 1.000000000000
0.000000000000 1.466666666667
0.000000000000 1.933333333333
0.000000000000 2.400000000000
0.000000000000 2.866666666667
0.000000000000 3.333333333333
0.000000000000 3.800000000000
0.000000000000 4.266666666667
0.000000000000 4.733333333333
0.000000000000 5.200000000000
0.000000000000 5.666666666667
0.000000000000 6.133333333333
0.000000000000 6.600000000000
0.000000000000 7.066666666667
0.000000000000 7.533333333333
0.000000000000 8.000000000000
0.000000000000 10.000000000000
0.000000000000 12.000000000000
0.000000000000 14.000000000000
0.000000000000 16.000000000000
0.000000000000 18.000000000000
0.000000000000 20.000000000000
0.000000000000 22.000000000000
0.000000000000 24.000000000000
0.000000000000 30.000000000000
0.000000000000 36.000000000000
0.000000000000 42.000000000000
0.000000000000 48.000000000000
0.000047619048 -48.000000000000
0.000047619048 -42.000000000000
0.000047619048 -36.000000000000
0.000047619048 -30.000000000000
0.000047619048 -24.000000000000
0.000047619048 -22.000000000000
0.000047619048 -20.000000000000
0.000047619048 -18.000000000000
0.000047619048 -16.000000000000
0.000047619048 -14.000000000000
0.000047619048 -12.000000000000
0.000047619048 -10.000000000000
0.000047619048 -8.000000000000
0.000047619048 -7.533333333333
0.000047619048 -7.066666666667
0.000047619048 -6.600000000000
0.000047619048 -6.133333333333
0.000047619048 -5.666666666667
0.000047619048 -5.200000000000
0.000047619048 -4.733333333333
0.000047619048 -4.266666666667
0.000047619048 -3.800000000000
0.000047619048 -3.333333333333
0.000047619048 -2.866666666667
0.000047619048 -2.400000000000
0.000047619048 -1.933333333333
0.000047619048 -1.466666666667
0.000047619048 -1.000000000000
0.000047619048 -0.950214989876
0.000047619048 -0.900666572453
0.000047619048 -0.851365376462
0.000047619048 -0.802323092133
0.000047619048 -0.753552642079
0.000047619048 -0.705068391357
0.000047619048 -0.656886408743
0.000047619048 -0.609024795931
0.000047619048 -0.561504108464
0.000047619048 -0.514347903027
0.000047619048 -0.467583462777
0.000047619048 -0.421242780245
0.000047619048 -0.375363924425
0.000047619048 -0.329993002221
0.000047619048 -0.285187080642
0.000047619048 -0.241018748334
0.000047619048 -0.197583672716
0.000047619048 -0.155014146033
0.000047619048 -0.113506188896
0.000047619048 -0.073383623210
0.000047619048 -0.035301637755
0.000047619048 -0.002000000000
0.000047619048 -0.001952380952
0.000047619048 -0.001904761905
0.000047619048 -0.001857142857
0.000047619048 -0.001809523810
0.000047619048 -0.001761904762
0.000047619048 -0.001714285714
0.000047619048 -0.001666666667
0.000047619048 -0.001619047619
0.000047619048 -0.001571428571
0.000047619048 -0.001523809524
0.000047619048 -0.001476190476
0.000047619048 -0.001428571429
0.000047619048 -0.001380952381
0.000047619048 -0.001333333333
0.000047619048 -0.001285714286
0.000047619048 -0.001238095238
0.000047619048 -0.001190476190
0.000047619048 -0.001142857143
0.000047619048 -0.001095238095
0.000047619048 -0.001047619048
0.000047619048 -0.001000000000
0.000047619048 -0.000952380952
0.000047619048 -0.000904761905
0.000047619048 -0.000857142857
0.000047619048 -0.000809523810
0.000047619048 -0.000761904762
0.000047619048 -0.000714285714
0.000047619048 -0.000666666667
0.000047619048 -0.000619047619
0.000047619048 -0.000571428571
0.000047619048 -0.000523809524
0.000047619048 -0.000476190476
0.000047619048 -0.000428571429
0.000047619048 -0.000380952381
0.000047619048 -0.000333333333
0.000047619048 -0.000285714286
0.000047619048 -0.000238095238
0.000047619048 -0.000190476190
0.000047619048 -0.000142857143
0.000047619048 -0.000095238095
0.000047619048 -0.000047619048
0.000047619048 0.000000000000
0.000047619048 0.000047619048
0.000047619048 0.000095238095
0.000047619048 0.000142857143
0.000047619048 0.000190476190
0.000047619048 0.000238095238
0.000047619048 0.000285714286
0.000047619048 0.000333333333
0.000047619048 0.000380952381
0.000047619048 0.000428571429
0.000047619048 0.000476190476
0.000047619048 0.000523809524
0.000047619048 0.000571428571
0.000047619048 0.000619047619
0.000047619048 0.000666666667
0.000047619048 0.000714285714
0.000047619048 0.000761904762
0.000047619048 0.000809523810
0.000047619048 0.000857142857
0.000047619048 0.000904761905
0.000047619048 0.000952380952
0.000047619048 0.001000000000
0.000047619048 0.001047619048
0.000047619048 0.001095238095
0.000047619048 0.001142857143
0.000047619048 0.001190476190
0.000047619048 0.001238095238
0.000047619048 0.001285714286
0.000047619048 0.001333333333
0.000047619048 0.001380952381
0.000047619048 0.001428571429
0.000047619048 0.001476190476
0.000047619048 0.001523809524
0.000047619048 0.001571428571
0.000047619048 0.001619047619
0.000047619048 0.001666666667
0.000047619048 0.001714285714
0.000047619048 0.001761904762
0.000047619048 0.001809523810
0.000047619048 0.001857142857
0.000047619048 0.001904761905
0.000047619048 0.001952380952
0.000047619048 0.002000000000
0.000047619048 0.035301637755
0.000047619048 0.073383623210
0.000047619048 0.113506188896
0.000047619048 0.155014146033
0.000047619048 0.197583672716
0.000047619048 0.241018748334
0.000047619048 0.285187080642
0.000047619048 0.329993002221
0.000047619048 0.375363924425
0.000047619048 0.421242780245
0.000047619048 0.467583462777
0.000047619048 0.514347903027
0.000047619048 0.561504108464
0.000047619048 0.609024795931
0.000047619048 0.656886408743
0.000047619048 0.705068391357
0.000047619048 0.753552642079
0.000047619048 0.802323092133
0.000047619048 0.851365376462
0.000047619048 0.900666572453
0.000047619048 0.950214989876
0.000047619048 1.000000000000
0.000047619048 1.466666666667
0.000047619048 1.933333333333
0.000047619048 2.400000000000
0.000047619048 2.866666666667
0.000047619048 3.333333333333
0.000047619048 3.800000000000
0.000047619048 4.266666666667
0.000047619048 4.733333333333
0.000047619048 5.200000000000
0.000047619048 5.666666666667
0.000047619048 6.133333333333
0.000047619048 6.600000000000
0.000047619048 7.066666666667
0.000047619048 7.533333333333
0.000047619048 8.000000000000
0.000047619048 10.000000000000
0.000047619048 12.000000000000
0.000047619048 14.000000000000
0.000047619048 16.000000000000
0.000047619048 18.000000000000
0.000047619048 20.000000000000
0.000047619048 22.000000000000
0.000047619048 24.000000000000
0.000047619048 30.000000000000
0.000047619048 36.000000000000
0.000047619048 42.000000000000
0.000047619048 48.000000000000
0.000095238095 -48.000000000000
0.000095238095 -42.000000000000
0.000095238095 -36.000000000000
0.000095238095 -30.000000000000
0.000095238095 -24.000000000000
0.000095238095 -22.000000000000
0.000095238095 -20.000000000000
0.000095238095 -18.000000000000
0.000095238095 -16.000000000000
0.000095238095 -14.000000000000
0.000095238095 -12.000000000000
0.000095238095 -10.000000000000
0.000095238095 -8.000000000000
0.000095238095 -7.533333333333
0.000095238095 -7.066666666667
0.000095238095 -6.600000000000
0.000095238095 -6.133333333333
0.000095238095 -5.666666666667
0.000095238095 -5.200000000000
0.000095238095 -4.733333333333
0.000095238095 -4.266666666667
0.000095238095 -3.800000000000
0.000095238095 -3.333333333333
0.000095238095 -2.866666666667
0.000095238095 -2.400000000000
0.000095238095 -1.933333333333
0.000095238095 -1.466666666667
0.000095238095 -1.000000000000
0.000095238095 -0.950214989876
0.000095238095 -0.900666572453
0.000095238095 -0.851365376462
0.000095238095 -0.802323092133
0.000095238095 -0.753552642079
0.000095238095 -0.705068391357
0.000095238095 -0.656886408743
0.000095238095 -0.609024795931
0.000095238095 -0.561504108464
0.000095238095 -0.514347903027
0.000095238095 -0.467583462777
0.000095238095 -0.421242780245
0.000095238095 -0.375363924425
0.000095238095 -0.329993002221
0.000095238095 -0.285187080642
0.000095238095 -0.241018748334
0.000095238095 -0.197583672716
0.000095238095 -0.155014146033
0.000095238095 -0.113506188896
0.000095238095 -0.073383623210
0.000095238095 -0.035301637755
0.000095238095 -0.002000000000
0.000095238095 -0.001952380952
0.000095238095 -0.001904761905
0.000095238095 -0.001857142857
0.000095238095 -0.001809523810
0.000095238095 -0.001761904762
0.000095238095 -0.001714285714
0.000095238095 -0.001666666667
0.000095238095 -0.001619047619
0.000095238095 -0.001571428571
0.000095238095 -0.001523809524
0.000095238095 -0.001476190476
0.000095238095 -0.001428571429
0.000095238095 -0.001380952381
0.000095238095 -0.001333333333
0.000095238095 -0.001285714286
0.000095238095 -0.001238095238
0.000095238095 -0.001190476190
0.000095238095 -0.001142857143
0.000095238095 -0.001095238095
0.000095238095 -0.001047619048
0.000095238095 -0.001000000000
0.000095238095 -0.000952380952
0.000095238095 -0.000904761905
0.000095238095 -0.000857142857
0.000095238095 -0.000809523810
0.000095238095 -0.000761904762
0.000095238095 -0.000714285714
0.000095238095 -0.000666666667
0.000095238095 -0.000619047619
0.000095238095 -0.000571428571
0.000095238095 -0.000523809524
0.000095238095 -0.000476190476
0.000095238095 -0.000428571429
0.000095238095 -0.000380952381
0.000095238095 -0.000333333333
0.000095238095 -0.000285714286
0.000095238095 -0.000238095238
0.000095238095 -0.000190476190
0.000095238095 -0.000142857143
0.000095238095 -0.000095238095
0.000095238095 -0.000047619048
0.000095238095 0.000000000000
0.000095238095 0.000047619048
0.000095238095 0.000095238095
0.000095238095 0.000142857143
0.000095238095 0.000190476190
0.000095238095 0.000238095238
0.000095238095 0.000285714286
0.000095238095 0.000333333333
0.000095238095 0.000380952381
0.000095238095 0.000428571429
0.000095238095 0.000476190476
0.000095238095 0.000523809524
0.000095238095 0.000571428571
0.000095238095 0.000619047619
0.000095238095 0.000666666667
0.000095238095 0.000714285714
0.000095238095 0.000761904762
0.000095238095 0.000809523810
0.000095238095 0.000857142857
0.000095238095 0.000904761905
0.000095238095 0.000952380952
0.000095238095 0.001000000000
0.000095238095 0.001047619048
0.000095238095 0.001095238095
0.000095238095 0.001142857143
0.000095238095 0.001190476190
0.000095238095 0.001238095238
0.000095238095 0.001285714286
0.000095238095 0.001333333333
0.000095238095 0.001380952381
0.000095238095 0.001428571429
0.000095238095 0.001476190476
0.000095238095 0.001523809524
0.000095238095 0.001571428571
0.000095238095 0.001619047619
0.000095238095 0.001666666667
0.000095238095 0.001714285714
0.000095238095 0.001761904762
0.000095238095 0.001809523810
0.000095238095 0.001857142857
0.000095238095 0.001904761905
0.000095238095 0.001952380952
0.000095238095 0.002000000000
0.000095238095 0.035301637755
0.000095238095 0.073383623210
0.000095238095 0.113506188896
0.000095238095 0.155014146033
0.000095238095 0.197583672716
0.000095238095 0.241018748334
0.000095238095 0.285187080642
0.000095238095 0.329993002221
0.000095238095 0.375363924425
0.000095238095 0.421242780245
0.000095238095 0.467583462777
0.000095238095 0.514347903027
0.000095238095 0.561504108464
0.000095238095 0.609024795931
0.000095238095 0.656886408743
0.000095238095 0.705068391357
0.000095238095 0.753552642079
0.000095238095 0.802323092133
0.000095238095 0.851365376462
0.000095238095 0.900666572453
0.000095238095 0.950214989876
0.000095238095 1.000000000000
0.000095238095 1.466666666667
0.000095238095 1.933333333333
0.000095238095 2.400000000000
0.000095238095 2.866666666667
0.000095238095 3.333333333333
0.000095238095 3.800000000000
0.000095238095 4.266666666667
0.000095238095 4.733333333333
0.000095238095 5.200000000000
0.000095238095 5.666666666667
0.000095238095 6.133333333333
0.000095238095 6.600000000000
0.000095238095 7.066666666667
0.000095238095 7.533333333333
0.000095238095 8.000000000000
0.000095238095 10.000000000000
0.000095238095 12.000000000000
0.000095238095 14.000000000000
0.000095238095 16.000000000000
0.000095238095 18.000000000000
0.000095238095 20.000000000000
0.000095238095 22.000000000000
0.000095238095 24.000000000000
0.000095238095 30.000000000000
0.000095238095 36.000000000000
0.000095238095 42.000000000000
0.000095238095 48.000000000000
0.000142857143 -48.000000000000
0.000142857143 -42.000000000000
0.000142857143 -36.000000000000
0.000142857143 -30.000000000000
0.000142857143 -24.000000000000
0.000142857143 -22.000000000000
0.000142857143 -20.000000000000
0.000142857143 -18.000000000000
0.000142857143 -16.000000000000
0.000142857143 -14.000000000000
0.000142857143 -12.000000000000
0.000142857143 -10.000000000000
0.000142857143 -8.000000000000
0.000142857143 -7.533333333333
0.000142857143 -7.066666666667
0.000142857143 -6.600000000000
0.000142857143 -6.133333333333
0.000142857143 -5.666666666667
0.000142857143 -5.200000000000
0.000142857143 -4.733333333333
0.000142857143 -4.266666666667
0.000142857143 -3.800000000000
0.000142857143 -3.333333333333
0.000142857143 -2.866666666667
0.000142857143 -2.400000000000
0.000142857143 -1.933333333333
0.000142857143 -1.466666666667
0.000142857143 -1.000000000000
0.000142857143 -0.950214989876
0.000142857143 -0.900666572453
0.000142857143 -0.851365376462
0.000142857143 -0.802323092133
0.000142857143 -0.753552642079
0.000142857143 -0.705068391357
0.000142857143 -0.656886408743
0.000142857143 -0.609024795931
0.000142857143 -0.561504108464
0.000142857143 -0.514347903027
0.000142857143 -0.467583462777
0.000142857143 -0.421242780245
0.000142857143 -0.375363924425
0.000142857143 -0.329993002221
0.000142857143 -0.285187080642
0.000142857143 -0.241018748334
0.000142857143 -0.197583672716
0.000142857143 -0.155014146033
0.000142857143 -0.113506188896
0.000142857143 -0.073383623210
0.000142857143 -0.035301637755
0.000142857143 -0.002000000000
0.000142857143 -0.001952380952
0.000142857143 -0.001904761905
0.000142857143 -0.001857142857
0.000142857143 -0.001809523810
0.000142857143 -0.001761904762
0.000142857143 -0.001714285714
0.000142857143 -0.001666666667
0.000142857143 -0.001619047619
0.000142857143 -0.001571428571
0.000142857143 -0.001523809524
0.000142857143 -0.001476190476
0.000142857143 -0.001428571429
0.000142857143 -0.001380952381
0.000142857143 -0.001333333333
0.000142857143 -0.001285714286
0.000142857143 -0.001238095238
0.000142857143 -0.001190476190
0.000142857143 -0.001142857143
0.000142857143 -0.001095238095
0.000142857143 -0.001047619048
0.000142857143 -0.001000000000
0.000142857143 -0.000952380952
0.000142857143 -0.000904761905
0.000142857143 -0.000857142857
0.000142857143 -0.000809523810
0.000142857143 -0.000761904762
0.000142857143 -0.000714285714
0.000142857143 -0.000666666667
0.000142857143 -0.000619047619
0.000142857143 -0.000571428571
0.000142857143 -0.000523809524
0.000142857143 -0.000476190476
0.000142857143 -0.000428571429
0.000142857143 -0.000380952381
0.000142857143 -0.000333333333
0.000142857143 -0.000285714286
0.000142857143 -0.000238095238
0.000142857143 -0.000190476190
0.000142857143 -0.000142857143
0.000142857143 -0.000095238095
0.000142857143 -0.000047619048
0.000142857143 0.000000000000
0.000142857143 0.000047619048
0.000142857143 0.000095238095
0.000142857143 0.000142857143
0.000142857143 0.000190476190
0.000142857143 0.000238095238
0.000142857143 0.000285714286
0.000142857143 0.000333333333
0.000142857143 0.000380952381
0.000142857143 0.000428571429
0.000142857143 0.000476190476
0.000142857143 0.000523809524
0.000142857143 0.000571428571
0.000142857143 0.000619047619
0.000142857143 0.000666666667
0.000142857143 0.000714285714
0.000142857143 0.000761904762
0.000142857143 0.000809523810
0.000142857143 0.000857142857
0.000142857143 0.000904761905
0.000142857143 0.000952380952
0.000142857143 0.001000000000
0.000142857143 0.001047619048
0.000142857143 0.001095238095
0.000142857143 0.001142857143
0.000142857143 0.001190476190
0.000142857143 0.001238095238
0.000142857143 0.001285714286
0.000142857143 0.001333333333
0.000142857143 0.001380952381
0.000142857143 0.001428571429
0.000142857143 0.001476190476
0.000142857143 0.001523809524
0.000142857143 0.001571428571
0.000142857143 0.001619047619
0.000142857143 0.001666666667
0.000142857143 0.001714285714
0.000142857143 0.001761904762
0.000142857143 0.001809523810
0.000142857143 0.001857142857
0.000142857143 0.001904761905
0.000142857143 0.001952380952
0.000142857143 0.002000000000
0.000142857143 0.035301637755
0.000142857143 0.073383623210
0.000142857143 0.113506188896
0.000142857143 0.155014146033
0.000142857143 0.197583672716
0.000142857143 0.241018748334
0.000142857143 0.285187080642
0.000142857143 0.329993002221
0.000142857143 0.375363924425
0.000142857143 0.421242780245
0.000142857143 0.467583462777
0.000142857143 0.514347903027
0.000142857143 0.561504108464
0.000142857143 0.609024795931
0.000142857143 0.656886408743
0.000142857143 0.705068391357
0.000142857143 0.753552642079
0.000142857143 0.802323092133
0.000142857143 0.851365376462
0.000142857143 0.900666572453
0.000142857143 0.950214989876
0.000142857143 1.000000000000
0.000142857143 1.466666666667
0.000142857143 1.933333333333
0.000142857143 2.400000000000
0.000142857143 2.866666666667
0.000142857143 3.333333333333
0.000142857143 3.800000000000
0.000142857143 4.266666666667
0.000142857143 4.733333333333
0.000142857143 5.200000000000
0.000142857143 5.666666666667
0.000142857143 6.133333333333
0.000142857143 6.600000000000
0.000142857143 7.066666666667
0.000142857143 7.533333333333
0.000142857143 8.000000000000
0.000142857143 10.000000000000
0.000142857143 12.000000000000
0.000142857143 14.000000000000
0.000142857143 16.000000000000
0.000142857143 18.000000000000
0.000142857143 20.000000000000
0.000142857143 22.000000000000
0.000142857143 24.000000000000
0.000142857143 30.000000000000
0.000142857143 36.000000000000
0.000142857143 42.000000000000
0.000142857143 48.000000000000
0.000190476190 -48.000000000000
0.000190476190 -42.000000000000
0.000190476190 -36.000000000000
0.000190476190 -30.000000000000
0.000190476190 -24.000000000000
0.000190476190 -22.000000000000
0.000190476190 -20.000000000000
0.000190476190 -18.000000000000
0.000190476190 -16.000000000000
0.000190476190 -14.000000000000
0.000190476190 -12.000000000000
0.000190476190 -10.000000000000
0.000190476190 -8.000000000000
0.000190476190 -7.533333333333
0.000190476190 -7.066666666667
0.000190476190 -6.600000000000
0.000190476190 -6.133333333333
0.000190476190 -5.666666666667
0.000190476190 -5.200000000000
0.000190476190 -4.733333333333
0.000190476190 -4.266666666667
0.000190476190 -3.800000000000
0.000190476190 -3.333333333333
0.000190476190 -2.866666666667
0.000190476190 -2.400000000000
0.000190476190 -1.933333333333
0.000190476190 -1.466666666667
0.000190476190 -1.000000000000
0.000190476190 -0.950214989876
0.000190476190 -0.900666572453
0.000190476190 -0.851365376462
0.000190476190 -0.802323092133
0.000190476190 -0.753552642079
0.000190476190 -0.705068391357
0.000190476190 -0.656886408743
0.000190476190 -0.609024795931
0.000190476190 -0.561504108464
0.000190476190 -0.514347903027
0.000190476190 -0.467583462777
0.000190476190 -0.421242780245
0.000190476190 -0.375363924425
0.000190476190 -0.329993002221
0.000190476190 -0.285187080642
0.000190476190 -0.241018748334
0.000190476190 -0.197583672716
0.000190476190 -0.155014146033
0.000190476190 -0.113506188896
0.000190476190 -0.073383623210
0.000190476190 -0.035301637755
0.000190476190 -0.002000000000
0.000190476190 -0.001952380952
0.000190476190 -0.001904761905
0.000190476190 -0.001857142857
0.000190476190 -0.001809523810
0.000190476190 -0.001761904762
0.000190476190 -0.001714285714
0.000190476190 -0.001666666667
0.000190476190 -0.001619047619
0.000190476190 -0.001571428571
0.000190476190 -0.001523809524
0.000190476190 -0.001476190476
0.000190476190 -0.001428571429
0.000190476190 -0.001380952381
0.000190476190 -0.001333333333
0.000190476190 -0.001285714286
0.000190476190 -0.001238095238
0.000190476190 -0.001190476190
0.000190476190 -0.001142857143
0.000190476190 -0.001095238095
0.000190476190 -0.001047619048
0.000190476190 -0.001000000000
0.000190476190 -0.000952380952
0.000190476190 -0.000904761905
0.000190476190 -0.000857142857
0.000190476190 -0.000809523810
0.000190476190 -0.000761904762
0.000190476190 -0.000714285714
0.000190476190 -0.000666666667
0.000190476190 -0.000619047619
0.000190476190 -0.000571428571
0.000190476190 -0.000523809524
0.000190476190 -0.000476190476
0.000190476190 -0.000428571429
0.000190476190 -0.000380952381
0.000190476190 -0.000333333333
0.000190476190 -0.000285714286
0.000190476190 -0.000238095238
0.000190476190 -0.000190476190
0.000190476190 -0.000142857143
0.000190476190 -0.000095238095
0.000190476190 -0.000047619048
0.000190476190 0.000000000000
0.000190476190 0.000047619048
0.000190476190 0.000095238095
0.000190476190 0.000142857143
0.000190476190 0.000190476190
0.000190476190 0.000238095238
0.000190476190 0.000285714286
0.000190476190 0.000333333333
0.000190476190 0.000380952381
0.000190476190 0.000428571429
0.000190476190 0.000476190476
0.000190476190 0.000523809524
0.000190476190 0.000571428571
0.000190476190 0.000619047619
0.000190476190 0.000666666667
0.000190476190 0.000714285714
0.000190476190 0.000761904762
0.000190476190 0.000809523810
0.000190476190 0.000857142857
0.000190476190 0.000904761905
0.000190476190 0.000952380952
0.000190476190 0.001000000000
0.000190476190 0.001047619048
0.000190476190 0.001095238095
0.000190476190 0.001142857143
0.000190476190 0.001190476190
0.000190476190 0.001238095238
0.000190476190 0.001285714286
0.000190476190 0.001333333333
0.000190476190 0.001380952381
0.000190476190 0.001428571429
0.000190476190 0.001476190476
0.000190476190 0.001523809524
0.000190476190 0.001571428571
0.000190476190 0.001619047619
0.000190476190 0.001666666667
0.000190476190 0.001714285714
0.000190476190 0.001761904762
0.000190476190 0.001809523810
0.000190476190 0.001857142857
0.000190476190 0.001904761905
0.000190476190 0.001952380952
0.000190476190 0.002000000000
0.000190476190 0.035301637755
0.000190476190 0.073383623210
0.000190476190 0.113506188896
0.000190476190 0.155014146033
0.000190476190 0.197583672716
0.000190476190 0.241018748334
0.000190476190 0.285187080642
0.000190476190 0.329993002221
0.000190476190 0.375363924425
0.000190476190 0.421242780245
0.000190476190 0.467583462777
0.000190476190 0.514347903027
0.000190476190 0.561504108464
0.000190476190 0.609024795931
0.000190476190 0.656886408743
0.000190476190 0.705068391357
0.000190476190 0.753552642079
0.000190476190 0.802323092133
0.000190476190 0.851365376462
0.000190476190 0.900666572453
0.000190476190 0.950214989876
0.000190476190 1.000000000000
0.000190476190 1.466666666667
0.000190476190 1.933333333333
0.000190476190 2.400000000000
0.000190476190 2.866666666667
0.000190476190 3.333333333333
0.000190476190 3.800000000000
0.000190476190 4.266666666667
0.000190476190 4.733333333333
0.000190476190 5.200000000000
0.000190476190 5.666666666667
0.000190476190 6.133333333333
0.000190476190 6.600000000000
0.000190476190 7.066666666667
0.000190476190 7.533333333333
0.000190476190 8.000000000000
0.000190476190 10.000000000000
0.000190476190 12.000000000000
0.000190476190 14.000000000000
0.000190476190 16.000000000000
0.000190476190 18.000000000000
0.000190476190 20.000000000000
0.000190476190 22.000000000000
0.000190476190 24.000000000000
0.000190476190 30.000000000000
0.000190476190 36.000000000000
0.000190476190 42.000000000000
0.000190476190 48.000000000000
0.000238095238 -48.000000000000
0.000238095238 -42.000000000000
0.000238095238 -36.000000000000
0.000238095238 -30.000000000000
0.000238095238 -24.000000000000
0.000238095238 -22.000000000000
0.000238095238 -20.000000000000
0.000238095238 -18.000000000000
0.000238095238 -16.000000000000
0.000238095238 -14.000000000000
0.000238095238 -12.000000000000
0.000238095238 -10.000000000000
0.000238095238 -8.000000000000
0.000238095238 -7.533333333333
0.000238095238 -7.066666666667
0.000238095238 -6.600000000000
0.000238095238 -6.133333333333
0.000238095238 -5.666666666667
0.000238095238 -5.200000000000
0.000238095238 -4.733333333333
0.000238095238 -4.266666666667
0.000238095238 -3.800000000000
0.000238095238 -3.333333333333
0.000238095238 -2.866666666667
0.000238095238 -2.400000000000
0.000238095238 -1.933333333333
0.000238095238 -1.466666666667
0.000238095238 -1.000000000000
0.000238095238 -0.950214989876
0.000238095238 -0.900666572453
0.000238095238 -0.851365376462
0.000238095238 -0.802323092133
0.000238095238 -0.753552642079
0.000238095238 -0.705068391357
0.000238095238 -0.656886408743
0.000238095238 -0.609024795931
0.000238095238 -0.561504108464
0.000238095238 -0.514347903027
0.000238095238 -0.467583462777
0.000238095238 -0.421242780245
0.000238095238 -0.375363924425
0.000238095238 -0.329993002221
0.000238095238 -0.285187080642
0.000238095238 -0.241018748334
0.000238095238 -0.197583672716
0.000238095238 -0.155014146033
0.000238095238 -0.113506188896
0.000238095238 -0.073383623210
0.000238095238 -0.035301637755
0.000238095238 -0.002000000000
0.000238095238 -0.001952380952
0.000238095238 -0.001904761905
0.000238095238 -0.001857142857
0.000238095238 -0.001809523810
0.000238095238 -0.001761904762
0.000238095238 -0.001714285714
0.000238095238 -0.001666666667
0.000238095238 -0.001619047619
0.000238095238 -0.001571428571
0.000238095238 -0.001523809524
0.000238095238 -0.001476190476
0.000238095238 -0.001428571429
0.000238095238 -0.001380952381
0.000238095238 -0.001333333333
0.000238095238 -0.001285714286
0.000238095238 -0.001238095238
0.000238095238 -0.001190476190
0.000238095238 -0.001142857143
0.000238095238 -0.001095238095
0.000238095238 -0.001047619048
0.000238095238 -0.001000000000
0.000238095238 -0.000952380952
0.000238095238 -0.000904761905
0.000238095238 -0.000857142857
0.000238095238 -0.000809523810
0.000238095238 -0.000761904762
0.000238095238 -0.000714285714
0.000238095238 -0.000666666667
0.000238095238 -0.000619047619
0.000238095238 -0.000571428571
0.000238095238 -0.000523809524
0.000238095238 -0.000476190476
0.000238095238 -0.000428571429
0.000238095238 -0.000380952381
0.000238095238 -0.000333333333
0.000238095238 -0.000285714286
0.000238095238 -0.000238095238
0.000238095238 -0.000190476190
0.000238095238 -0.000142857143
0.000238095238 -0.000095238095
0.000238095238 -0.000047619048
0.000238095238 0.000000000000
0.000238095238 0.000047619048
0.000238095238 0.000095238095
0.000238095238 0.000142857143
0.000238095238 0.000190476190
0.000238095238 0.000238095238
0.000238095238 0.000285714286
0.000238095238 0.000333333333
0.000238095238 0.000380952381
0.000238095238 0.000428571429
0.000238095238 0.000476190476
0.000238095238 0.000523809524
0.000238095238 0.000571428571
0.000238095238 0.000619047619
0.000238095238 0.000666666667
0.000238095238 0.000714285714
0.000238095238 0.000761904762
0.000238095238 0.000809523810
0.000238095238 0.000857142857
0.000238095238 0.000904761905
0.000238095238 0.000952380952
0.000238095238 0.001000000000
0.000238095238 0.001047619048
0.000238095238 0.001095238095
0.000238095238 0.001142857143
0.000238095238 0.001190476190
0.000238095238 0.001238095238
0.000238095238 0.001285714286
0.000238095238 0.001333333333
0.000238095238 0.001380952381
0.000238095238 0.001428571429
0.000238095238 0.001476190476
0.000238095238 0.001523809524
0.000238095238 0.001571428571
0.000238095238 0.001619047619
0.000238095238 0.001666666667
0.000238095238 0.001714285714
0.000238095238 0.001761904762
0.000238095238 0.001809523810
0.000238095238 0.001857142857
0.000238095238 0.001904761905
0.000238095238 0.001952380952
0.000238095238 0.002000000000
0.000238095238 0.035301637755
0.000238095238 0.073383623210
0.000238095238 0.113506188896
0.000238095238 0.155014146033
0.000238095238 0.197583672716
0.000238095238 0.241018748334
0.000238095238 0.285187080642
0.000238095238 0.329993002221
0.000238095238 0.375363924425
0.000238095238 0.421242780245
0.000238095238 0.467583462777
0.000238095238 0.514347903027
0.000238095238 0.561504108464
0.000238095238 0.609024795931
0.000238095238 0.656886408743
0.000238095238 0.705068391357
0.000238095238 0.753552642079
0.000238095238 0.802323092133
0.000238095238 0.851365376462
0.000238095238 0.900666572453
0.000238095238 0.950214989876
0.000238095238 1.000000000000
0.000238095238 1.466666666667
0.000238095238 1.933333333333
0.000238095238 2.400000000000
0.000238095238 2.866666666667
0.000238095238 3.333333333333
0.000238095238 3.800000000000
0.000238095238 4.266666666667
0.000238095238 4.733333333333
0.000238095238 5.200000000000
0.000238095238 5.666666666667
0.000238095238 6.133333333333
0.000238095238 6.600000000000
0.000238095238 7.066666666667
0.000238095238 7.533333333333
0.000238095238 8.000000000000
0.000238095238 10.000000000000
0.000238095238 12.000000000000
0.000238095238 14.000000000000
0.000238095238 16.000000000000
0.000238095238 18.000000000000
0.000238095238 20.000000000000
0.000238095238 22.000000000000
0.000238095238 24.000000000000
0.000238095238 30.000000000000
0.000238095238 36.000000000000
0.000238095238 42.000000000000
0.000238095238 48.000000000000
0.000285714286 -48.000000000000
0.000285714286 -42.000000000000
0.000285714286 -36.000000000000
0.000285714286 -30.000000000000
0.000285714286 -24.000000000000
0.000285714286 -22.000000000000
0.000285714286 -20.000000000000
0.000285714286 -18.000000000000
0.000285714286 -16.000000000000
0.000285714286 -14.000000000000
0.000285714286 -12.000000000000
0.000285714286 -10.000000000000
0.000285714286 -8.000000000000
0.000285714286 -7.533333333333
0.000285714286 -7.066666666667
0.000285714286 -6.600000000000
0.000285714286 -6.133333333333
0.000285714286 -5.666666666667
0.000285714286 -5.200000000000
0.000285714286 -4.733333333333
0.000285714286 -4.266666666667
0.000285714286 -3.800000000000
0.000285714286 -3.333333333333
0.000285714286 -2.866666666667
0.000285714286 -2.400000000000
0.000285714286 -1.933333333333
0.000285714286 -1.466666666667
0.000285714286 -1.000000000000
0.000285714286 -0.950214989876
0.000285714286 -0.900666572453
0.000285714286 -0.851365376462
0.000285714286 -0.802323092133
0.000285714286 -0.753552642079
0.000285714286 -0.705068391357
0.000285714286 -0.656886408743
0.000285714286 -0.609024795931
0.000285714286 -0.561504108464
0.000285714286 -0.514347903027
0.000285714286 -0.467583462777
0.000285714286 -0.421242780245
0.000285714286 -0.375363924425
0.000285714286 -0.329993002221
0.000285714286 -0.285187080642
0.000285714286 -0.241018748334
0.000285714286 -0.197583672716
0.000285714286 -0.155014146033
0.000285714286 -0.113506188896
0.000285714286 -0.073383623210
0.000285714286 -0.035301637755
0.000285714286 -0.002000000000
0.000285714286 -0.001952380952
0.000285714286 -0.001904761905
0.000285714286 -0.001857142857
0.000285714286 -0.001809523810
0.000285714286 -0.001761904762
0.000285714286 -0.001714285714
0.000285714286 -0.001666666667
0.000285714286 -0.001619047619
0.000285714286 -0.001571428571
0.000285714286 -0.001523809524
0.000285714286 -0.001476190476
0.000285714286 -0.001428571429
0.000285714286 -0.001380952381
0.000285714286 -0.001333333333
0.000285714286 -0.001285714286
0.000285714286 -0.001238095238
0.000285714286 -0.001190476190
0.000285714286 -0.001142857143
0.000285714286 -0.001095238095
0.000285714286 -0.001047619048
0.000285714286 -0.001000000000
0.000285714286 -0.000952380952
0.000285714286 -0.000904761905
0.000285714286 -0.000857142857
0.000285714286 -0.000809523810
0.000285714286 -0.000761904762
0.000285714286 -0.000714285714
0.000285714286 -0.000666666667
0.000285714286 -0.000619047619
0.000285714286 -0.000571428571
0.000285714286 -0.000523809524
0.000285714286 -0.000476190476
0.000285714286 -0.000428571429
0.000285714286 -0.000380952381
0.000285714286 -0.000333333333
0.000285714286 -0.000285714286
0.000285714286 -0.000238095238
0.000285714286 -0.000190476190
0.000285714286 -0.000142857143
0.000285714286 -0.000095238095
0.000285714286 -0.000047619048
0.000285714286 0.000000000000
0.000285714286 0.000047619048
0.000285714286 0.000095238095
0.000285714286 0.000142857143
0.000285714286 0.000190476190
0.000285714286 0.000238095238
0.000285714286 0.000285714286
0.000285714286 0.000333333333
0.000285714286 0.000380952381
0.000285714286 0.000428571429
0.000285714286 0.000476190476
0.000285714286 0.000523809524
0.000285714286 0.000571428571
0.000285714286 0.000619047619
0.000285714286 0.000666666667
0.000285714286 0.000714285714
0.000285714286 0.000761904762
0.000285714286 0.000809523810
0.000285714286 0.000857142857
0.000285714286 0.000904761905
0.000285714286 0.000952380952
0.000285714286 0.001000000000
0.000285714286 0.001047619048
0.000285714286 0.001095238095
0.000285714286 0.001142857143
0.000285714286 0.001190476190
0.000285714286 0.001238095238
0.000285714286 0.001285714286
0.000285714286 0.001333333333
0.000285714286 0.001380952381
0.000285714286 0.001428571429
0.000285714286 0.001476190476
0.000285714286 0.001523809524
0.000285714286 0.001571428571
0.000285714286 0.001619047619
0.000285714286 0.001666666667
0.000285714286 0.001714285714
0.000285714286 0.001761904762
0.000285714286 0.001809523810
0.000285714286 0.001857142857
0.000285714286 0.001904761905
0.000285714286 0.001952380952
0.000285714286 0.002000000000
0.000285714286 0.035301637755
0.000285714286 0.073383623210
0.000285714286 0.113506188896
0.000285714286 0.155014146033
0.000285714286 0.197583672716
0.000285714286 0.241018748334
0.000285714286 0.285187080642
0.000285714286 0.329993002221
0.000285714286 0.375363924425
0.000285714286 0.421242780245
0.000285714286 0.467583462777
0.000285714286 0.514347903027
0.000285714286 0.561504108464
0.000285714286 0.609024795931
0.000285714286 0.656886408743
0.000285714286 0.705068391357
0.000285714286 0.753552642079
0.000285714286 0.802323092133
0.000285714286 0.851365376462
0.000285714286 0.900666572453
0.000285714286 0.950214989876
0.000285714286 1.000000000000
0.000285714286 1.466666666667
0.000285714286 1.933333333333
0.000285714286 2.400000000000
0.000285714286 2.866666666667
0.000285714286 3.333333333333
0.000285714286 3.800000000000
0.000285714286 4.266666666667
0.000285714286 4.733333333333
0.000285714286 5.200000000000
0.000285714286 5.666666666667
0.000285714286 6.133333333333
0.000285714286 6.600000000000
0.000285714286 7.066666666667
0.000285714286 7.533333333333
0.000285714286 8.000000000000
0.000285714286 10.000000000000
0.000285714286 12.000000000000
0.000285714286 14.000000000000
0.000285714286 16.000000000000
0.000285714286 18.000000000000
0.000285714286 20.000000000000
0.000285714286 22.000000000000
0.000285714286 24.000000000000
0.000285714286 30.000000000000
0.000285714286 36.000000000000
0.000285714286 42.000000000000
0.000285714286 48.000000000000
0.000333333333 -48.000000000000
0.000333333333 -42.000000000000
0.000333333333 -36.000000000000
0.000333333333 -30.000000000000
0.000333333333 -24.000000000000
0.000333333333 -22.000000000000
0.000333333333 -20.000000000000
0.000333333333 -18.000000000000
0.000333333333 -16.000000000000
0.000333333333 -14.000000000000
0.000333333333 -12.000000000000
0.000333333333 -10.000000000000
0.000333333333 -8.000000000000
0.000333333333 -7.533333333333
0.000333333333 -7.066666666667
0.000333333333 -6.600000000000
0.000333333333 -6.133333333333
0.000333333333 -5.666666666667
0.000333333333 -5.200000000000
0.000333333333 -4.733333333333
0.000333333333 -4.266666666667
0.000333333333 -3.800000000000
0.000333333333 -3.333333333333
0.000333333333 -2.866666666667
0.000333333333 -2.400000000000
0.000333333333 -1.933333333333
0.000333333333 -1.466666666667
0.000333333333 -1.000000000000
0.000333333333 -0.950214989876
0.000333333333 -0.900666572453
0.000333333333 -0.851365376462
0.000333333333 -0.802323092133
0.000333333333 -0.753552642079
0.000333333333 -0.705068391357
0.000333333333 -0.656886408743
0.000333333333 -0.609024795931
0.000333333333 -0.561504108464
0.000333333333 -0.514347903027
0.000333333333 -0.467583462777
0.000333333333 -0.421242780245
0.000333333333 -0.375363924425
0.000333333333 -0.329993002221
0.000333333333 -0.285187080642
0.000333333333 -0.241018748334
0.000333333333 -0.197583672716
0.000333333333 -0.155014146033
0.000333333333 -0.113506188896
0.000333333333 -0.073383623210
0.000333333333 -0.035301637755
0.000333333333 -0.002000000000
0.000333333333 -0.001952380952
0.000333333333 -0.001904761905
0.000333333333 -0.001857142857
0.000333333333 -0.001809523810
0.000333333333 -0.001761904762
0.000333333333 -0.001714285714
0.000333333333 -0.001666666667
0.000333333333 -0.001619047619
0.000333333333 -0.001571428571
0.000333333333 -0.001523809524
0.000333333333 -0.001476190476
0.000333333333 -0.001428571429
0.000333333333 -0.001380952381
0.000333333333 -0.001333333333
0.000333333333 -0.001285714286
0.000333333333 -0.001238095238
0.000333333333 -0.001190476190
0.000333333333 -0.001142857143
0.000333333333 -0.001095238095
0.000333333333 -0.001047619048
0.000333333333 -0.001000000000
0.000333333333 -0.000952380952
0.000333333333 -0.000904761905
0.000333333333 -0.000857142857
0.000333333333 -0.000809523810
0.000333333333 -0.000761904762
0.000333333333 -0.000714285714
0.000333333333 -0.000666666667
0.000333333333 -0.000619047619
0.000333333333 -0.000571428571
0.000333333333 -0.000523809524
0.000333333333 -0.000476190476
0.000333333333 -0.000428571429
0.000333333333 -0.000380952381
0.000333333333 -0.000333333333
0.000333333333 -0.000285714286
0.000333333333 -0.000238095238
0.000333333333 -0.000190476190
0.000333333333 -0.000142857143
0.000333333333 -0.000095238095
0.000333333333 -0.000047619048
0.000333333333 0.000000000000
0.000333333333 0.000047619048
0.000333333333 0.000095238095
0.000333333333 0.000142857143
0.000333333333 0.000190476190
0.000333333333 0.000238095238
0.000333333333 0.000285714286
0.000333333333 0.000333333333
0.000333333333 0.000380952381
0.000333333333 0.000428571429
0.000333333333 0.000476190476
0.000333333333 0.000523809524
0.000333333333 0.000571428571
0.000333333333 0.000619047619
0.000333333333 0.000666666667
0.000333333333 0.000714285714
0.000333333333 0.000761904762
0.000333333333 0.000809523810
0.000333333333 0.000857142857
0.000333333333 0.000904761905
0.000333333333 0.000952380952
0.000333333333 0.001000000000
0.000333333333 0.001047619048
0.000333333333 0.001095238095
0.000333333333 0.001142857143
0.000333333333 0.001190476190
0.000333333333 0.001238095238
0.000333333333 0.001285714286
0.000333333333 0.001333333333
0.000333333333 0.001380952381
0.000333333333 0.001428571429
0.000333333333 0.001476190476
0.000333333333 0.001523809524
0.000333333333 0.001571428571
0.000333333333 0.001619047619
0.000333333333 0.001666666667
0.000333333333 0.001714285714
0.000333333333 0.001761904762
0.000333333333 0.001809523810
0.000333333333 0.001857142857
0.000333333333 0.001904761905
0.000333333333 0.001952380952
0.000333333333 0.002000000000
0.000333333333 0.035301637755
0.000333333333 0.073383623210
0.000333333333 0.113506188896
0.000333333333 0.155014146033
0.000333333333 0.197583672716
0.000333333333 0.241018748334
0.000333333333 0.285187080642
0.000333333333 0.329993002221
0.000333333333 0.375363924425
0.000333333333 0.421242780245
0.000333333333 0.467583462777
0.000333333333 0.514347903027
0.000333333333 0.561504108464
0.000333333333 0.609024795931
0.000333333333 0.656886408743
0.000333333333 0.705068391357
0.000333333333 0.753552642079
0.000333333333 0.802323092133
0.000333333333 0.851365376462
0.000333333333 0.900666572453
0.000333333333 0.950214989876
0.000333333333 1.000000000000
0.000333333333 1.466666666667
0.000333333333 1.933333333333
0.000333333333 2.400000000000
0.000333333333 2.866666666667
0.000333333333 3.333333333333
0.000333333333 3.800000000000
0.000333333333 4.266666666667
0.000333333333 4.733333333333
0.000333333333 5.200000000000
0.000333333333 5.666666666667
0.000333333333 6.133333333333
0.000333333333 6.600000000000
0.000333333333 7.066666666667
0.000333333333 7.533333333333
0.000333333333 8.000000000000
0.000333333333 10.000000000000
0.000333333333 12.000000000000
0.000333333333 14.000000000000
0.000333333333 16.000000000000
0.000333333333 18.000000000000
0.000333333333 20.000000000000
0.000333333333 22.000000000000
0.000333333333 24.000000000000
0.000333333333 30.000000000000
0.000333333333 36.000000000000
0.000333333333 42.000000000000
0.000333333333 48.000000000000
0.000380952381 -48.000000000000
0.000380952381 -42.000000000000
0.000380952381 -36.000000000000
0.000380952381 -30.000000000000
0.000380952381 -24.000000000000
0.000380952381 -22.000000000000
0.000380952381 -20.000000000000
0.000380952381 -18.000000000000
0.000380952381 -16.000000000000
0.000380952381 -14.000000000000
0.000380952381 -12.000000000000
0.000380952381 -10.000000000000
0.000380952381 -8.000000000000
0.000380952381 -7.533333333333
0.000380952381 -7.066666666667
0.000380952381 -6.600000000000
0.000380952381 -6.133333333333
0.000380952381 -5.666666666667
0.000380952381 -5.200000000000
0.000380952381 -4.733333333333
0.000380952381 -4.266666666667
0.000380952381 -3.800000000000
0.000380952381 -3.333333333333
0.000380952381 -2.866666666667
0.000380952381 -2.400000000000
0.000380952381 -1.933333333333
0.000380952381 -1.466666666667
0.000380952381 -1.000000000000
0.000380952381 -0.950214989876
0.000380952381 -0.900666572453
0.000380952381 -0.851365376462
0.000380952381 -0.802323092133
0.000380952381 -0.753552642079
0.000380952381 -0.705068391357
0.000380952381 -0.656886408743
0.000380952381 -0.609024795931
0.000380952381 -0.561504108464
0.000380952381 -0.514347903027
0.000380952381 -0.467583462777
0.000380952381 -0.421242780245
0.000380952381 -0.375363924425
0.000380952381 -0.329993002221
0.000380952381 -0.285187080642
0.000380952381 -0.241018748334
0.000380952381 -0.197583672716
0.000380952381 -0.155014146033
0.000380952381 -0.113506188896
0.000380952381 -0.073383623210
0.000380952381 -0.035301637755
0.000380952381 -0.002000000000
0.000380952381 -0.001952380952
0.000380952381 -0.001904761905
0.000380952381 -0.001857142857
0.000380952381 -0.001809523810
0.000380952381 -0.001761904762
0.000380952381 -0.001714285714
0.000380952381 -0.001666666667
0.000380952381 -0.001619047619
0.000380952381 -0.001571428571
0.000380952381 -0.001523809524
0.000380952381 -0.001476190476
0.000380952381 -0.001428571429
0.000380952381 -0.001380952381
0.000380952381 -0.001333333333
0.000380952381 -0.001285714286
0.000380952381 -0.001238095238
0.000380952381 -0.001190476190
0.000380952381 -0.001142857143
0.000380952381 -0.001095238095
0.000380952381 -0.001047619048
0.000380952381 -0.001000000000
0.000380952381 -0.000952380952
0.000380952381 -0.000904761905
0.000380952381 -0.000857142857
0.000380952381 -0.000809523810
0.000380952381 -0.000761904762
0.000380952381 -0.000714285714
0.000380952381 -0.000666666667
0.000380952381 -0.000619047619
0.000380952381 -0.000571428571
0.000380952381 -0.000523809524
0.000380952381 -0.000476190476
0.000380952381 -0.000428571429
0.000380952381 -0.000380952381
0.000380952381 -0.000333333333
0.000380952381 -0.000285714286
0.000380952381 -0.000238095238
0.000380952381 -0.000190476190
0.000380952381 -0.000142857143
0.000380952381 -0.000095238095
0.000380952381 -0.000047619048
0.000380952381 0.000000000000
0.000380952381 0.000047619048
0.000380952381 0.000095238095
0.000380952381 0.000142857143
0.000380952381 0.000190476190
0.000380952381 0.000238095238
0.000380952381 0.000285714286
0.000380952381 0.000333333333
0.000380952381 0.000380952381
0.000380952381 0.000428571429
0.000380952381 0.000476190476
0.000380952381 0.000523809524
0.000380952381 0.000571428571
0.000380952381 0.000619047619
0.000380952381 0.000666666667
0.000380952381 0.000714285714
0.000380952381 0.000761904762
0.000380952381 0.000809523810
0.000380952381 0.000857142857
0.000380952381 0.000904761905
0.000380952381 0.000952380952
0.000380952381 0.001000000000
0.000380952381 0.001047619048
0.000380952381 0.001095238095
0.000380952381 0.001142857143
0.000380952381 0.001190476190
0.000380952381 0.001238095238
0.000380952381 0.001285714286
0.000380952381 0.001333333333
0.000380952381 0.001380952381
0.000380952381 0.001428571429
0.000380952381 0.001476190476
0.000380952381 0.001523809524
0.000380952381 0.001571428571
0.000380952381 0.001619047619
0.000380952381 0.001666666667
0.000380952381 0.001714285714
0.000380952381 0.001761904762
0.000380952381 0.001809523810
0.000380952381 0.001857142857
0.000380952381 0.001904761905
0.000380952381 0.001952380952
0.000380952381 0.002000000000
0.000380952381 0.035301637755
0.000380952381 0.073383623210
0.000380952381 0.113506188896
0.000380952381 0.155014146033
0.000380952381 0.197583672716
0.000380952381 0.241018748334
0.000380952381 0.285187080642
0.000380952381 0.329993002221
0.000380952381 0.375363924425
0.000380952381 0.421242780245
0.000380952381 0.467583462777
0.000380952381 0.514347903027
0.000380952381 0.561504108464
0.000380952381 0.609024795931
0.000380952381 0.656886408743
0.000380952381 0.705068391357
0.000380952381 0.753552642079
0.000380952381 0.802323092133
0.000380952381 0.851365376462
0.000380952381 0.900666572453
0.000380952381 0.950214989876
0.000380952381 1.000000000000
0.000380952381 1.466666666667
0.000380952381 1.933333333333
0.000380952381 2.400000000000
0.000380952381 2.866666666667
0.000380952381 3.333333333333
0.000380952381 3.800000000000
0.000380952381 4.266666666667
0.000380952381 4.733333333333
0.000380952381 5.200000000000
0.000380952381 5.666666666667
0.000380952381 6.133333333333
0.000380952381 6.600000000000
0.000380952381 7.066666666667
0.000380952381 7.533333333333
0.000380952381 8.000000000000
0.000380952381 10.000000000000
0.000380952381 12.000000000000
0.000380952381 14.000000000000
0.000380952381 16.000000000000
0.000380952381 18.000000000000
0.000380952381 20.000000000000
0.000380952381 22.000000000000
0.000380952381 24.000000000000
0.000380952381 30.000000000000
0.000380952381 36.000000000000
0.000380952381 42.000000000000
0.000380952381 48.000000000000
0.000428571429 -48.000000000000
0.000428571429 -42.000000000000
0.000428571429 -36.000000000000
0.000428571429 -30.000000000000
0.000428571429 -24.000000000000
0.000428571429 -22.000000000000
0.000428571429 -20.000000000000
0.000428571429 -18.000000000000
0.000428571429 -16.000000000000
0.000428571429 -14.000000000000
0.000428571429 -12.000000000000
0.000428571429 -10.000000000000
0.000428571429 -8.000000000000
0.000428571429 -7.533333333333
0.000428571429 -7.066666666667
0.000428571429 -6.600000000000
0.000428571429 -6.133333333333
0.000428571429 -5.666666666667
0.000428571429 -5.200000000000
0.000428571429 -4.733333333333
0.000428571429 -4.266666666667
0.000428571429 -3.800000000000
0.000428571429 -3.333333333333
0.000428571429 -2.866666666667
0.000428571429 -2.400000000000
0.000428571429 -1.933333333333
0.000428571429 -1.466666666667
0.000428571429 -1.000000000000
0.000428571429 -0.950214989876
0.000428571429 -0.900666572453
0.000428571429 -0.851365376462
0.000428571429 -0.802323092133
0.000428571429 -0.753552642079
0.000428571429 -0.705068391357
0.000428571429 -0.656886408743
0.000428571429 -0.609024795931
0.000428571429 -0.561504108464
0.000428571429 -0.514347903027
0.000428571429 -0.467583462777
0.000428571429 -0.421242780245
0.000428571429 -0.375363924425
0.000428571429 -0.329993002221
0.000428571429 -0.285187080642
0.000428571429 -0.241018748334
0.000428571429 -0.197583672716
0.000428571429 -0.155014146033
0.000428571429 -0.113506188896
0.000428571429 -0.073383623210
0.000428571429 -0.035301637755
0.000428571429 -0.002000000000
0.000428571429 -0.001952380952
0.000428571429 -0.001904761905
0.000428571429 -0.001857142857
0.000428571429 -0.001809523810
0.000428571429 -0.001761904762
0.000428571429 -0.001714285714
0.000428571429 -0.001666666667
0.000428571429 -0.001619047619
0.000428571429 -0.001571428571
0.000428571429 -0.001523809524
0.000428571429 -0.001476190476
0.000428571429 -0.001428571429
0.000428571429 -0.001380952381
0.000428571429 -0.001333333333
0.000428571429 -0.001285714286
0.000428571429 -0.001238095238
0.000428571429 -0.001190476190
0.000428571429 -0.001142857143
0.000428571429 -0.001095238095
0.000428571429 -0.001047619048
0.000428571429 -0.001000000000
0.000428571429 -0.000952380952
0.000428571429 -0.000904761905
0.000428571429 -0.000857142857
0.000428571429 -0.000809523810
0.000428571429 -0.000761904762
0.000428571429 -0.000714285714
0.000428571429 -0.000666666667
0.000428571429 -0.000619047619
0.000428571429 -0.000571428571
0.000428571429 -0.000523809524
0.000428571429 -0.000476190476
0.000428571429 -0.000428571429
0.000428571429 -0.000380952381
0.000428571429 -0.000333333333
0.000428571429 -0.000285714286
0.000428571429 -0.000238095238
0.000428571429 -0.000190476190
0.000428571429 -0.000142857143
0.000428571429 -0.000095238095
0.000428571429 -0.000047619048
0.000428571429 0.000000000000
0.000428571429 0.000047619048
0.000428571429 0.000095238095
0.000428571429 0.000142857143
0.000428571429 0.000190476190
0.000428571429 0.000238095238
0.000428571429 0.000285714286
0.000428571429 0.000333333333
0.000428571429 0.000380952381
0.000428571429 0.000428571429
0.000428571429 0.000476190476
0.000428571429 0.000523809524
0.000428571429 0.000571428571
0.000428571429 0.000619047619
0.000428571429 0.000666666667
0.000428571429 0.000714285714
0.000428571429 0.000761904762
0.000428571429 0.000809523810
0.000428571429 0.000857142857
0.000428571429 0.000904761905
0.000428571429 0.000952380952
0.000428571429 0.001000000000
0.000428571429 0.001047619048
0.000428571429 0.001095238095
0.000428571429 0.001142857143
0.000428571429 0.001190476190
0.000428571429 0.001238095238
0.000428571429 0.001285714286
0.000428571429 0.001333333333
0.000428571429 0.001380952381
0.000428571429 0.001428571429
0.000428571429 0.001476190476
0.000428571429 0.001523809524
0.000428571429 0.001571428571
0.000428571429 0.001619047619
0.000428571429 0.001666666667
0.000428571429 0.001714285714
0.000428571429 0.001761904762
0.000428571429 0.001809523810
0.000428571429 0.001857142857
0.000428571429 0.001904761905
0.000428571429 0.001952380952
0.000428571429 0.002000000000
0.000428571429 0.035301637755
0.000428571429 0.073383623210
0.000428571429 0.113506188896
0.000428571429 0.155014146033
0.000428571429 0.197583672716
0.000428571429 0.241018748334
0.000428571429 0.285187080642
0.000428571429 0.329993002221
0.000428571429 0.375363924425
0.000428571429 0.421242780245
0.000428571429 0.467583462777
0.000428571429 0.514347903027
0.000428571429 0.561504108464
0.000428571429 0.609024795931
0.000428571429 0.656886408743
0.000428571429 0.705068391357
0.000428571429 0.753552642079
0.000428571429 0.802323092133
0.000428571429 0.851365376462
0.000428571429 0.900666572453
0.000428571429 0.950214989876
0.000428571429 1.000000000000
0.000428571429 1.466666666667
0.000428571429 1.933333333333
0.000428571429 2.400000000000
0.000428571429 2.866666666667
0.000428571429 3.333333333333
0.000428571429 3.800000000000
0.000428571429 4.266666666667
0.000428571429 4.733333333333
0.000428571429 5.200000000000
0.000428571429 5.666666666667
0.000428571429 6.133333333333
0.000428571429 6.600000000000
0.000428571429 7.066666666667
0.000428571429 7.533333333333
0.000428571429 8.000000000000
0.000428571429 10.000000000000
0.000428571429 12.000000000000
0.000428571429 14.000000000000
0.000428571429 16.000000000000
0.000428571429 18.000000000000
0.000428571429 20.000000000000
0.000428571429 22.000000000000
0.000428571429 24.000000000000
0.000428571429 30.000000000000
0.000428571429 36.000000000000
0.000428571429 42.000000000000
0.000428571429 48.000000000000
0.000476190476 -48.000000000000
0.000476190476 -42.000000000000
0.000476190476 -36.000000000000
0.000476190476 -30.000000000000
0.000476190476 -24.000000000000
0.000476190476 -22.000000000000
0.000476190476 -20.000000000000
0.000476190476 -18.000000000000
0.000476190476 -16.000000000000
0.000476190476 -14.000000000000
0.000476190476 -12.000000000000
0.000476190476 -10.000000000000
0.000476190476 -8.000000000000
0.000476190476 -7.533333333333
0.000476190476 -7.066666666667
0.000476190476 -6.600000000000
0.000476190476 -6.133333333333
0.000476190476 -5.666666666667
0.000476190476 -5.200000000000
0.000476190476 -4.733333333333
0.000476190476 -4.266666666667
0.000476190476 -3.800000000000
0.000476190476 -3.333333333333
0.000476190476 -2.866666666667
0.000476190476 -2.400000000000
0.000476190476 -1.933333333333
0.000476190476 -1.466666666667
0.000476190476 -1.000000000000
0.000476190476 -0.950214989876
0.000476190476 -0.900666572453
0.000476190476 -0.851365376462
0.000476190476 -0.802323092133
0.000476190476 -0.753552642079
0.000476190476 -0.705068391357
0.000476190476 -0.656886408743
0.000476190476 -0.609024795931
0.000476190476 -0.561504108464
0.000476190476 -0.514347903027
0.000476190476 -0.467583462777
0.000476190476 -0.421242780245
0.000476190476 -0.375363924425
0.000476190476 -0.329993002221
0.000476190476 -0.285187080642
0.000476190476 -0.241018748334
0.000476190476 -0.197583672716
0.000476190476 -0.155014146033
0.000476190476 -0.113506188896
0.000476190476 -0.073383623210
0.000476190476 -0.035301637755
0.000476190476 -0.002000000000
0.000476190476 -0.001952380952
0.000476190476 -0.001904761905
0.000476190476 -0.001857142857
0.000476190476 -0.001809523810
0.000476190476 -0.001761904762
0.000476190476 -0.001714285714
0.000476190476 -0.001666666667
0.000476190476 -0.001619047619
0.000476190476 -0.001571428571
0.000476190476 -0.001523809524
0.000476190476 -0.001476190476
0.000476190476 -0.001428571429
0.000476190476 -0.001380952381
0.000476190476 -0.001333333333
0.000476190476 -0.001285714286
0.000476190476 -0.001238095238
0.000476190476 -0.001190476190
0.000476190476 -0.001142857143
0.000476190476 -0.001095238095
0.000476190476 -0.001047619048
0.000476190476 -0.001000000000
0.000476190476 -0.000952380952
0.000476190476 -0.000904761905
0.000476190476 -0.000857142857
0.000476190476 -0.000809523810
0.000476190476 -0.000761904762
0.000476190476 -0.000714285714
0.000476190476 -0.000666666667
0.000476190476 -0.000619047619
0.000476190476 -0.000571428571
0.000476190476 -0.000523809524
0.000476190476 -0.000476190476
0.000476190476 -0.000428571429
0.000476190476 -0.000380952381
0.000476190476 -0.000333333333
0.000476190476 -0.000285714286
0.000476190476 -0.000238095238
0.000476190476 -0.000190476190
0.000476190476 -0.000142857143
0.000476190476 -0.000095238095
0.000476190476 -0.000047619048
0.000476190476 0.000000000000
0.000476190476 0.000047619048
0.000476190476 0.000095238095
0.000476190476 0.000142857143
0.000476190476 0.000190476190
0.000476190476 0.000238095238
0.000476190476 0.000285714286
0.000476190476 0.000333333333
0.000476190476 0.000380952381
0.000476190476 0.000428571429
0.000476190476 0.000476190476
0.000476190476 0.000523809524
0.000476190476 0.000571428571
0.000476190476 0.000619047619
0.000476190476 0.000666666667
0.000476190476 0.000714285714
0.000476190476 0.000761904762
0.000476190476 0.000809523810
0.000476190476 0.000857142857
0.000476190476 0.000904761905
0.000476190476 0.000952380952
0.000476190476 0.001000000000
0.000476190476 0.001047619048
0.000476190476 0.001095238095
0.000476190476 0.001142857143
0.000476190476 0.001190476190
0.000476190476 0.001238095238
0.000476190476 0.001285714286
0.000476190476 0.001333333333
0.000476190476 0.001380952381
0.000476190476 0.001428571429
0.000476190476 0.001476190476
0.000476190476 0.001523809524
0.000476190476 0.001571428571
0.000476190476 0.001619047619
0.000476190476 0.001666666667
0.000476190476 0.001714285714
0.000476190476 0.001761904762
0.000476190476 0.001809523810
0.000476190476 0.001857142857
0.000476190476 0.001904761905
0.000476190476 0.001952380952
0.000476190476 0.002000000000
0.000476190476 0.035301637755
0.000476190476 0.073383623210
0.000476190476 0.113506188896
0.000476190476 0.155014146033
0.000476190476 0.197583672716
0.000476190476 0.241018748334
0.000476190476 0.285187080642
0.000476190476 0.329993002221
0.000476190476 0.375363924425
0.000476190476 0.421242780245
0.000476190476 0.467583462777
0.000476190476 0.514347903027
0.000476190476 0.561504108464
0.000476190476 0.609024795931
0.000476190476 0.656886408743
0.000476190476 0.705068391357
0.000476190476 0.753552642079
0.000476190476 0.802323092133
0.000476190476 0.851365376462
0.000476190476 0.900666572453
0.000476190476 0.950214989876
0.000476190476 1.000000000000
0.000476190476 1.466666666667
0.000476190476 1.933333333333
0.000476190476 2.400000000000
0.000476190476 2.866666666667
0.000476190476 3.333333333333
0.000476190476 3.800000000000
0.000476190476 4.266666666667
0.000476190476 4.733333333333
0.000476190476 5.200000000000
0.000476190476 5.666666666667
0.000476190476 6.133333333333
0.000476190476 6.600000000000
0.000476190476 7.066666666667
0.000476190476 7.533333333333
0.000476190476 8.000000000000
0.000476190476 10.000000000000
0.000476190476 12.000000000000
0.000476190476 14.000000000000
0.000476190476 16.000000000000
0.000476190476 18.000000000000
0.000476190476 20.000000000000
0.000476190476 22.000000000000
0.000476190476 24.000000000000
0.000476190476 30.000000000000
0.000476190476 36.000000000000
0.000476190476 42.000000000000
0.000476190476 48.000000000000
0.000523809524 -48.000000000000
0.000523809524 -42.000000000000
0.000523809524 -36.000000000000
0.000523809524 -30.000000000000
0.000523809524 -24.000000000000
0.000523809524 -22.000000000000
0.000523809524 -20.000000000000
0.000523809524 -18.000000000000
0.000523809524 -16.000000000000
0.000523809524 -14.000000000000
0.000523809524 -12.000000000000
0.000523809524 -10.000000000000
0.000523809524 -8.000000000000
0.000523809524 -7.533333333333
0.000523809524 -7.066666666667
0.000523809524 -6.600000000000
0.000523809524 -6.133333333333
0.000523809524 -5.666666666667
0.000523809524 -5.200000000000
0.000523809524 -4.733333333333
0.000523809524 -4.266666666667
0.000523809524 -3.800000000000
0.000523809524 -3.333333333333
0.000523809524 -2.866666666667
0.000523809524 -2.400000000000
0.000523809524 -1.933333333333
0.000523809524 -1.466666666667
0.000523809524 -1.000000000000
0.000523809524 -0.950214989876
0.000523809524 -0.900666572453
0.000523809524 -0.851365376462
0.000523809524 -0.802323092133
0.000523809524 -0.753552642079
0.000523809524 -0.705068391357
0.000523809524 -0.656886408743
0.000523809524 -0.609024795931
0.000523809524 -0.561504108464
0.000523809524 -0.514347903027
0.000523809524 -0.467583462777
0.000523809524 -0.421242780245
0.000523809524 -0.375363924425
0.000523809524 -0.329993002221
0.000523809524 -0.285187080642
0.000523809524 -0.241018748334
0.000523809524 -0.197583672716
0.000523809524 -0.155014146033
0.000523809524 -0.113506188896
0.000523809524 -0.073383623210
0.000523809524 -0.035301637755
0.000523809524 -0.002000000000
0.000523809524 -0.001952380952
0.000523809524 -0.001904761905
0.000523809524 -0.001857142857
0.000523809524 -0.001809523810
0.000523809524 -0.001761904762
0.000523809524 -0.001714285714
0.000523809524 -0.001666666667
0.000523809524 -0.001619047619
0.000523809524 -0.001571428571
0.000523809524 -0.001523809524
0.000523809524 -0.001476190476
0.000523809524 -0.001428571429
0.000523809524 -0.001380952381
0.000523809524 -0.001333333333
0.000523809524 -0.001285714286
0.000523809524 -0.001238095238
0.000523809524 -0.001190476190
0.000523809524 -0.001142857143
0.000523809524 -0.001095238095
0.000523809524 -0.001047619048
0.000523809524 -0.001000000000
0.000523809524 -0.000952380952
0.000523809524 -0.000904761905
0.000523809524 -0.000857142857
0.000523809524 -0.000809523810
0.000523809524 -0.000761904762
0.000523809524 -0.000714285714
0.000523809524 -0.000666666667
0.000523809524 -0.000619047619
0.000523809524 -0.000571428571
0.000523809524 -0.000523809524
0.000523809524 -0.000476190476
0.000523809524 -0.000428571429
0.000523809524 -0.000380952381
0.000523809524 -0.000333333333
0.000523809524 -0.000285714286
0.000523809524 -0.000238095238
0.000523809524 -0.000190476190
0.000523809524 -0.000142857143
0.000523809524 -0.000095238095
0.000523809524 -0.000047619048
0.000523809524 0.000000000000
0.000523809524 0.000047619048
0.000523809524 0.000095238095
0.000523809524 0.000142857143
0.000523809524 0.000190476190
0.000523809524 0.000238095238
0.000523809524 0.000285714286
0.000523809524 0.000333333333
0.000523809524 0.000380952381
0.000523809524 0.000428571429
0.000523809524 0.000476190476
0.000523809524 0.000523809524
0.000523809524 0.000571428571
0.000523809524 0.000619047619
0.000523809524 0.000666666667
0.000523809524 0.000714285714
0.000523809524 0.000761904762
0.000523809524 0.000809523810
0.000523809524 0.000857142857
0.000523809524 0.000904761905
0.000523809524 0.000952380952
0.000523809524 0.001000000000
0.000523809524 0.001047619048
0.000523809524 0.001095238095
0.000523809524 0.001142857143
0.000523809524 0.001190476190
0.000523809524 0.001238095238
0.000523809524 0.001285714286
0.000523809524 0.001333333333
0.000523809524 0.001380952381
0.000523809524 0.001428571429
0.000523809524 0.001476190476
0.000523809524 0.001523809524
0.000523809524 0.001571428571
0.000523809524 0.001619047619
0.000523809524 0.001666666667
0.000523809524 0.001714285714
0.000523809524 0.001761904762
0.000523809524 0.001809523810
0.000523809524 0.001857142857
0.000523809524 0.001904761905
0.000523809524 0.001952380952
0.000523809524 0.002000000000
0.000523809524 0.035301637755
0.000523809524 0.073383623210
0.000523809524 0.113506188896
0.000523809524 0.155014146033
0.000523809524 0.197583672716
0.000523809524 0.241018748334
0.000523809524 0.285187080642
0.000523809524 0.329993002221
0.000523809524 0.375363924425
0.000523809524 0.421242780245
0.000523809524 0.467583462777
0.000523809524 0.514347903027
0.000523809524 0.561504108464
0.000523809524 0.609024795931
0.000523809524 0.656886408743
0.000523809524 0.705068391357
0.000523809524 0.753552642079
0.000523809524 0.802323092133
0.000523809524 0.851365376462
0.000523809524 0.900666572453
0.000523809524 0.950214989876
0.000523809524 1.000000000000
0.000523809524 1.466666666667
0.000523809524 1.933333333333
0.000523809524 2.400000000000
0.000523809524 2.866666666667
0.000523809524 3.333333333333
0.000523809524 3.800000000000
0.000523809524 4.266666666667
0.000523809524 4.733333333333
0.000523809524 5.200000000000
0.000523809524 5.666666666667
0.000523809524 6.133333333333
0.000523809524 6.600000000000
0.000523809524 7.066666666667
0.000523809524 7.533333333333
0.000523809524 8.000000000000
0.000523809524 10.000000000000
0.000523809524 12.000000000000
0.000523809524 14.000000000000
0.000523809524 16.000000000000
0.000523809524 18.000000000000
0.000523809524 20.000000000000
0.000523809524 22.000000000000
0.000523809524 24.000000000000
0.000523809524 30.000000000000
0.000523809524 36.000000000000
0.000523809524 42.000000000000
0.000523809524 48.000000000000
0.000571428571 -48.000000000000
0.000571428571 -42.000000000000
0.000571428571 -36.000000000000
0.000571428571 -30.000000000000
0.000571428571 -24.000000000000
0.000571428571 -22.000000000000
0.000571428571 -20.000000000000
0.000571428571 -18.000000000000
0.000571428571 -16.000000000000
0.000571428571 -14.000000000000
0.000571428571 -12.000000000000
0.000571428571 -10.000000000000
0.000571428571 -8.000000000000
0.000571428571 -7.533333333333
0.000571428571 -7.066666666667
0.000571428571 -6.600000000000
0.000571428571 -6.133333333333
0.000571428571 -5.666666666667
0.000571428571 -5.200000000000
0.000571428571 -4.733333333333
0.000571428571 -4.266666666667
0.000571428571 -3.800000000000
0.000571428571 -3.333333333333
0.000571428571 -2.866666666667
0.000571428571 -2.400000000000
0.000571428571 -1.933333333333
0.000571428571 -1.466666666667
0.000571428571 -1.000000000000
0.000571428571 -0.950214989876
0.000571428571 -0.900666572453
0.000571428571 -0.851365376462
0.000571428571 -0.802323092133
0.000571428571 -0.753552642079
0.000571428571 -0.705068391357
0.000571428571 -0.656886408743
0.000571428571 -0.609024795931
0.000571428571 -0.561504108464
0.000571428571 -0.514347903027
0.000571428571 -0.467583462777
0.000571428571 -0.421242780245
0.000571428571 -0.375363924425
0.000571428571 -0.329993002221
0.000571428571 -0.285187080642
0.000571428571 -0.241018748334
0.000571428571 -0.197583672716
0.000571428571 -0.155014146033
0.000571428571 -0.113506188896
0.000571428571 -0.073383623210
0.000571428571 -0.035301637755
0.000571428571 -0.002000000000
0.000571428571 -0.001952380952
0.000571428571 -0.001904761905
0.000571428571 -0.001857142857
0.000571428571 -0.001809523810
0.000571428571 -0.001761904762
0.000571428571 -0.001714285714
0.000571428571 -0.001666666667
0.000571428571 -0.001619047619
0.000571428571 -0.001571428571
0.000571428571 -0.001523809524
0.000571428571 -0.001476190476
0.000571428571 -0.001428571429
0.000571428571 -0.001380952381
0.000571428571 -0.001333333333
0.000571428571 -0.001285714286
0.000571428571 -0.001238095238
0.000571428571 -0.001190476190
0.000571428571 -0.001142857143
0.000571428571 -0.001095238095
0.000571428571 -0.001047619048
0.000571428571 -0.001000000000
0.000571428571 -0.000952380952
0.000571428571 -0.000904761905
0.000571428571 -0.000857142857
0.000571428571 -0.000809523810
0.000571428571 -0.000761904762
0.000571428571 -0.000714285714
0.000571428571 -0.000666666667
0.000571428571 -0.000619047619
0.000571428571 -0.000571428571
0.000571428571 -0.000523809524
0.000571428571 -0.000476190476
0.000571428571 -0.000428571429
0.000571428571 -0.000380952381
0.000571428571 -0.000333333333
0.000571428571 -0.000285714286
0.000571428571 -0.000238095238
0.000571428571 -0.000190476190
0.000571428571 -0.000142857143
0.000571428571 -0.000095238095
0.000571428571 -0.000047619048
0.000571428571 0.000000000000
0.000571428571 0.000047619048
0.000571428571 0.000095238095
0.000571428571 0.000142857143
0.000571428571 0.000190476190
0.000571428571 0.000238095238
0.000571428571 0.000285714286
0.000571428571 0.000333333333
0.000571428571 0.000380952381
0.000571428571 0.000428571429
0.000571428571 0.000476190476
0.000571428571 0.000523809524
0.000571428571 0.000571428571
0.000571428571 0.000619047619
0.000571428571 0.000666666667
0.000571428571 0.000714285714
0.000571428571 0.000761904762
0.000571428571 0.000809523810
0.000571428571 0.000857142857
0.000571428571 0.000904761905
0.000571428571 0.000952380952
0.000571428571 0.001000000000
0.000571428571 0.001047619048
0.000571428571 0.001095238095
0.000571428571 0.001142857143
0.000571428571 0.001190476190
0.000571428571 0.001238095238
0.000571428571 0.001285714286
0.000571428571 0.001333333333
0.000571428571 0.001380952381
0.000571428571 0.001428571429
0.000571428571 0.001476190476
0.000571428571 0.001523809524
0.000571428571 0.001571428571
0.000571428571 0.001619047619
0.000571428571 0.001666666667
0.000571428571 0.001714285714
0.000571428571 0.001761904762
0.000571428571 0.001809523810
0.000571428571 0.001857142857
0.000571428571 0.001904761905
0.000571428571 0.001952380952
0.000571428571 0.002000000000
0.000571428571 0.035301637755
0.000571428571 0.073383623210
0.000571428571 0.113506188896
0.000571428571 0.155014146033
0.000571428571 0.197583672716
0.000571428571 0.241018748334
0.000571428571 0.285187080642
0.000571428571 0.329993002221
0.000571428571 0.375363924425
0.000571428571 0.421242780245
0.000571428571 0.467583462777
0.000571428571 0.514347903027
0.000571428571 0.561504108464
0.000571428571 0.609024795931
0.000571428571 0.656886408743
0.000571428571 0.705068391357
0.000571428571 0.753552642079
0.000571428571 0.802323092133
0.000571428571 0.851365376462
0.000571428571 0.900666572453
0.000571428571 0.950214989876
0.000571428571 1.000000000000
0.000571428571 1.466666666667
0.000571428571 1.933333333333
0.000571428571 2.400000000000
0.000571428571 2.866666666667
0.000571428571 3.333333333333
0.000571428571 3.800000000000
0.000571428571 4.266666666667
0.000571428571 4.733333333333
0.000571428571 5.200000000000
0.000571428571 5.666666666667
0.000571428571 6.133333333333
0.000571428571 6.600000000000
0.000571428571 7.066666666667
0.000571428571 7.533333333333
0.000571428571 8.000000000000
0.000571428571 10.000000000000
0.000571428571 12.000000000000
0.000571428571 14.000000000000
0.000571428571 16.000000000000
0.000571428571 18.000000000000
0.000571428571 20.000000000000
0.000571428571 22.000000000000
0.000571428571 24.000000000000
0.000571428571 30.000000000000
0.000571428571 36.000000000000
0.000571428571 42.000000000000
0.000571428571 48.000000000000
0.000619047619 -48.000000000000
0.000619047619 -42.000000000000
0.000619047619 -36.000000000000
0.000619047619 -30.000000000000
0.000619047619 -24.000000000000
0.000619047619 -22.000000000000
0.000619047619 -20.000000000000
0.000619047619 -18.000000000000
0.000619047619 -16.000000000000
0.000619047619 -14.000000000000
0.000619047619 -12.000000000000
0.000619047619 -10.000000000000
0.000619047619 -8.000000000000
0.000619047619 -7.533333333333
0.000619047619 -7.066666666667
0.000619047619 -6.600000000000
0.000619047619 -6.133333333333
0.000619047619 -5.666666666667
0.000619047619 -5.200000000000
0.000619047619 -4.733333333333
0.000619047619 -4.266666666667
0.000619047619 -3.800000000000
0.000619047619 -3.333333333333
0.000619047619 -2.866666666667
0.000619047619 -2.400000000000
0.000619047619 -1.933333333333
0.000619047619 -1.466666666667
0.000619047619 -1.000000000000
0.000619047619 -0.950214989876
0.000619047619 -0.900666572453
0.000619047619 -0.851365376462
0.000619047619 -0.802323092133
0.000619047619 -0.753552642079
0.000619047619 -0.705068391357
0.000619047619 -0.656886408743
0.000619047619 -0.609024795931
0.000619047619 -0.561504108464
0.000619047619 -0.514347903027
0.000619047619 -0.467583462777
0.000619047619 -0.421242780245
0.000619047619 -0.375363924425
0.000619047619 -0.329993002221
0.000619047619 -0.285187080642
0.000619047619 -0.241018748334
0.000619047619 -0.197583672716
0.000619047619 -0.155014146033
0.000619047619 -0.113506188896
0.000619047619 -0.073383623210
0.000619047619 -0.035301637755
0.000619047619 -0.002000000000
0.000619047619 -0.001952380952
0.000619047619 -0.001904761905
0.000619047619 -0.001857142857
0.000619047619 -0.001809523810
0.000619047619 -0.001761904762
0.000619047619 -0.001714285714
0.000619047619 -0.001666666667
0.000619047619 -0.001619047619
0.000619047619 -0.001571428571
0.000619047619 -0.001523809524
0.000619047619 -0.001476190476
0.000619047619 -0.001428571429
0.000619047619 -0.001380952381
0.000619047619 -0.001333333333
0.000619047619 -0.001285714286
0.000619047619 -0.001238095238
0.000619047619 -0.001190476190
0.000619047619 -0.001142857143
0.000619047619 -0.001095238095
0.000619047619 -0.001047619048
0.000619047619 -0.001000000000
0.000619047619 -0.000952380952
0.000619047619 -0.000904761905
0.000619047619 -0.000857142857
0.000619047619 -0.000809523810
0.000619047619 -0.000761904762
0.000619047619 -0.000714285714
0.000619047619 -0.000666666667
0.000619047619 -0.000619047619
0.000619047619 -0.000571428571
0.000619047619 -0.000523809524
0.000619047619 -0.000476190476
0.000619047619 -0.000428571429
0.000619047619 -0.000380952381
0.000619047619 -0.000333333333
0.000619047619 -0.000285714286
0.000619047619 -0.000238095238
0.000619047619 -0.000190476190
0.000619047619 -0.000142857143
0.000619047619 -0.000095238095
0.000619047619 -0.000047619048
0.000619047619 0.000000000000
0.000619047619 0.000047619048
0.000619047619 0.000095238095
0.000619047619 0.000142857143
0.000619047619 0.000190476190
0.000619047619 0.000238095238
0.000619047619 0.000285714286
0.000619047619 0.000333333333
0.000619047619 0.000380952381
0.000619047619 0.000428571429
0.000619047619 0.000476190476
0.000619047619 0.000523809524
0.000619047619 0.000571428571
0.000619047619 0.000619047619
0.000619047619 0.000666666667
0.000619047619 0.000714285714
0.000619047619 0.000761904762
0.000619047619 0.000809523810
0.000619047619 0.000857142857
0.000619047619 0.000904761905
0.000619047619 0.000952380952
0.000619047619 0.001000000000
0.000619047619 0.001047619048
0.000619047619 0.001095238095
0.000619047619 0.001142857143
0.000619047619 0.001190476190
0.000619047619 0.001238095238
0.000619047619 0.001285714286
0.000619047619 0.001333333333
0.000619047619 0.001380952381
0.000619047619 0.001428571429
0.000619047619 0.001476190476
0.000619047619 0.001523809524
0.000619047619 0.001571428571
0.000619047619 0.001619047619
0.000619047619 0.001666666667
0.000619047619 0.001714285714
0.000619047619 0.001761904762
0.000619047619 0.001809523810
0.000619047619 0.001857142857
0.000619047619 0.001904761905
0.000619047619 0.001952380952
0.000619047619 0.002000000000
0.000619047619 0.035301637755
0.000619047619 0.073383623210
0.000619047619 0.113506188896
0.000619047619 0.155014146033
0.000619047619 0.197583672716
0.000619047619 0.241018748334
0.000619047619 0.285187080642
0.000619047619 0.329993002221
0.000619047619 0.375363924425
0.000619047619 0.421242780245
0.000619047619 0.467583462777
0.000619047619 0.514347903027
0.000619047619 0.561504108464
0.000619047619 0.609024795931
0.000619047619 0.656886408743
0.000619047619 0.705068391357
0.000619047619 0.753552642079
0.000619047619 0.802323092133
0.000619047619 0.851365376462
0.000619047619 0.900666572453
0.000619047619 0.950214989876
0.000619047619 1.000000000000
0.000619047619 1.466666666667
0.000619047619 1.933333333333
0.000619047619 2.400000000000
0.000619047619 2.866666666667
0.000619047619 3.333333333333
0.000619047619 3.800000000000
0.000619047619 4.266666666667
0.000619047619 4.733333333333
0.000619047619 5.200000000000
0.000619047619 5.666666666667
0.000619047619 6.133333333333
0.000619047619 6.600000000000
0.000619047619 7.066666666667
0.000619047619 7.533333333333
0.000619047619 8.000000000000
0.000619047619 10.000000000000
0.000619047619 12.000000000000
0.000619047619 14.000000000000
0.000619047619 16.000000000000
0.000619047619 18.000000000000
0.000619047619 20.000000000000
0.000619047619 22.000000000000
0.000619047619 24.000000000000
0.000619047619 30.000000000000
0.000619047619 36.000000000000
0.000619047619 42.000000000000
0.000619047619 48.000000000000
0.000666666667 -48.000000000000
0.000666666667 -42.000000000000
0.000666666667 -36.000000000000
0.000666666667 -30.000000000000
0.000666666667 -24.000000000000
0.000666666667 -22.000000000000
0.000666666667 -20.000000000000
0.000666666667 -18.000000000000
0.000666666667 -16.000000000000
0.000666666667 -14.000000000000
0.000666666667 -12.000000000000
0.000666666667 -10.000000000000
0.000666666667 -8.000000000000
0.000666666667 -7.533333333333
0.000666666667 -7.066666666667
0.000666666667 -6.600000000000
0.000666666667 -6.133333333333
0.000666666667 -5.666666666667
0.000666666667 -5.200000000000
0.000666666667 -4.733333333333
0.000666666667 -4.266666666667
0.000666666667 -3.800000000000
0.000666666667 -3.333333333333
0.000666666667 -2.866666666667
0.000666666667 -2.400000000000
0.000666666667 -1.933333333333
0.000666666667 -1.466666666667
0.000666666667 -1.000000000000
0.000666666667 -0.950214989876
0.000666666667 -0.900666572453
0.000666666667 -0.851365376462
0.000666666667 -0.802323092133
0.000666666667 -0.753552642079
0.000666666667 -0.705068391357
0.000666666667 -0.656886408743
0.000666666667 -0.609024795931
0.000666666667 -0.561504108464
0.000666666667 -0.514347903027
0.000666666667 -0.467583462777
0.000666666667 -0.421242780245
0.000666666667 -0.375363924425
0.000666666667 -0.329993002221
0.000666666667 -0.285187080642
0.000666666667 -0.241018748334
0.000666666667 -0.197583672716
0.000666666667 -0.155014146033
0.000666666667 -0.113506188896
0.000666666667 -0.073383623210
0.000666666667 -0.035301637755
0.000666666667 -0.002000000000
0.000666666667 -0.001952380952
0.000666666667 -0.001904761905
0.000666666667 -0.001857142857
0.000666666667 -0.001809523810
0.000666666667 -0.001761904762
0.000666666667 -0.001714285714
0.000666666667 -0.001666666667
0.000666666667 -0.001619047619
0.000666666667 -0.001571428571
0.000666666667 -0.001523809524
0.000666666667 -0.001476190476
0.000666666667 -0.001428571429
0.000666666667 -0.001380952381
0.000666666667 -0.001333333333
0.000666666667 -0.001285714286
0.000666666667 -0.001238095238
0.000666666667 -0.001190476190
0.000666666667 -0.001142857143
0.000666666667 -0.001095238095
0.000666666667 -0.001047619048
0.000666666667 -0.001000000000
0.000666666667 -0.000952380952
0.000666666667 -0.000904761905
0.000666666667 -0.000857142857
0.000666666667 -0.000809523810
0.000666666667 -0.000761904762
0.000666666667 -0.000714285714
0.000666666667 -0.000666666667
0.000666666667 -0.000619047619
0.000666666667 -0.000571428571
0.000666666667 -0.000523809524
0.000666666667 -0.000476190476
0.000666666667 -0.000428571429
0.000666666667 -0.000380952381
0.000666666667 -0.000333333333
0.000666666667 -0.000285714286
0.000666666667 -0.000238095238
0.000666666667 -0.000190476190
0.000666666667 -0.000142857143
0.000666666667 -0.000095238095
0.000666666667 -0.000047619048
0.000666666667 0.000000000000
0.000666666667 0.000047619048
0.000666666667 0.000095238095
0.000666666667 0.000142857143
0.000666666667 0.000190476190
0.000666666667 0.000238095238
0.000666666667 0.000285714286
0.000666666667 0.000333333333
0.000666666667 0.000380952381
0.000666666667 0.000428571429
0.000666666667 0.000476190476
0.000666666667 0.000523809524
0.000666666667 0.000571428571
0.000666666667 0.000619047619
0.000666666667 0.000666666667
0.000666666667 0.000714285714
0.000666666667 0.000761904762
0.000666666667 0.000809523810
0.000666666667 0.000857142857
0.000666666667 0.000904761905
0.000666666667 0.000952380952
0.000666666667 0.001000000000
0.000666666667 0.001047619048
0.000666666667 0.001095238095
0.000666666667 0.001142857143
0.000666666667 0.001190476190
0.000666666667 0.001238095238
0.000666666667 0.001285714286
0.000666666667 0.001333333333
0.000666666667 0.001380952381
0.000666666667 0.001428571429
0.000666666667 0.001476190476
0.000666666667 0.001523809524
0.000666666667 0.001571428571
0.000666666667 0.001619047619
0.000666666667 0.001666666667
0.000666666667 0.001714285714
0.000666666667 0.001761904762
0.000666666667 0.001809523810
0.000666666667 0.001857142857
0.000666666667 0.001904761905
0.000666666667 0.001952380952
0.000666666667 0.002000000000
0.000666666667 0.035301637755
0.000666666667 0.073383623210
0.000666666667 0.113506188896
0.000666666667 0.155014146033
0.000666666667 0.197583672716
0.000666666667 0.241018748334
0.000666666667 0.285187080642
0.000666666667 0.329993002221
0.000666666667 0.375363924425
0.000666666667 0.421242780245
0.000666666667 0.467583462777
0.000666666667 0.514347903027
0.000666666667 0.561504108464
0.000666666667 0.609024795931
0.000666666667 0.656886408743
0.000666666667 0.705068391357
0.000666666667 0.753552642079
0.000666666667 0.802323092133
0.000666666667 0.851365376462
0.000666666667 0.900666572453
0.000666666667 0.950214989876
0.000666666667 1.000000000000
0.000666666667 1.466666666667
0.000666666667 1.933333333333
0.000666666667 2.400000000000
0.000666666667 2.866666666667
0.000666666667 3.333333333333
0.000666666667 3.800000000000
0.000666666667 4.266666666667
0.000666666667 4.733333333333
0.000666666667 5.200000000000
0.000666666667 5.666666666667
0.000666666667 6.133333333333
0.000666666667 6.600000000000
0.000666666667 7.066666666667
0.000666666667 7.533333333333
0.000666666667 8.000000000000
0.000666666667 10.000000000000
0.000666666667 12.000000000000
0.000666666667 14.000000000000
0.000666666667 16.000000000000
0.000666666667 18.000000000000
0.000666666667 20.000000000000
0.000666666667 22.000000000000
0.000666666667 24.000000000000
0.000666666667 30.000000000000
0.000666666667 36.000000000000
0.000666666667 42.000000000000
0.000666666667 48.000000000000
0.000714285714 -48.000000000000
0.000714285714 -42.000000000000
0.000714285714 -36.000000000000
0.000714285714 -30.000000000000
0.000714285714 -24.000000000000
0.000714285714 -22.000000000000
0.000714285714 -20.000000000000
0.000714285714 -18.000000000000
0.000714285714 -16.000000000000
0.000714285714 -14.000000000000
0.000714285714 -12.000000000000
0.000714285714 -10.000000000000
0.000714285714 -8.000000000000
0.000714285714 -7.533333333333
0.000714285714 -7.066666666667
0.000714285714 -6.600000000000
0.000714285714 -6.133333333333
0.000714285714 -5.666666666667
0.000714285714 -5.200000000000
0.000714285714 -4.733333333333
0.000714285714 -4.266666666667
0.000714285714 -3.800000000000
0.000714285714 -3.333333333333
0.000714285714 -2.866666666667
0.000714285714 -2.400000000000
0.000714285714 -1.933333333333
0.000714285714 -1.466666666667
0.000714285714 -1.000000000000
0.000714285714 -0.950214989876
0.000714285714 -0.900666572453
0.000714285714 -0.851365376462
0.000714285714 -0.802323092133
0.000714285714 -0.753552642079
0.000714285714 -0.705068391357
0.000714285714 -0.656886408743
0.000714285714 -0.609024795931
0.000714285714 -0.561504108464
0.000714285714 -0.514347903027
0.000714285714 -0.467583462777
0.000714285714 -0.421242780245
0.000714285714 -0.375363924425
0.000714285714 -0.329993002221
0.000714285714 -0.285187080642
0.000714285714 -0.241018748334
0.000714285714 -0.197583672716
0.000714285714 -0.155014146033
0.000714285714 -0.113506188896
0.000714285714 -0.073383623210
0.000714285714 -0.035301637755
0.000714285714 -0.002000000000
0.000714285714 -0.001952380952
0.000714285714 -0.001904761905
0.000714285714 -0.001857142857
0.000714285714 -0.001809523810
0.000714285714 -0.001761904762
0.000714285714 -0.001714285714
0.000714285714 -0.001666666667
0.000714285714 -0.001619047619
0.000714285714 -0.001571428571
0.000714285714 -0.001523809524
0.000714285714 -0.001476190476
0.000714285714 -0.001428571429
0.000714285714 -0.001380952381
0.000714285714 -0.001333333333
0.000714285714 -0.001285714286
0.000714285714 -0.001238095238
0.000714285714 -0.001190476190
0.000714285714 -0.001142857143
0.000714285714 -0.001095238095
0.000714285714 -0.001047619048
0.000714285714 -0.001000000000
0.000714285714 -0.000952380952
0.000714285714 -0.000904761905
0.000714285714 -0.000857142857
0.000714285714 -0.000809523810
0.000714285714 -0.000761904762
0.000714285714 -0.000714285714
0.000714285714 -0.000666666667
0.000714285714 -0.000619047619
0.000714285714 -0.000571428571
0.000714285714 -0.000523809524
0.000714285714 -0.000476190476
0.000714285714 -0.000428571429
0.000714285714 -0.000380952381
0.000714285714 -0.000333333333
0.000714285714 -0.000285714286
0.000714285714 -0.000238095238
0.000714285714 -0.000190476190
0.000714285714 -0.000142857143
0.000714285714 -0.000095238095
0.000714285714 -0.000047619048
0.000714285714 0.000000000000
0.000714285714 0.000047619048
0.000714285714 0.000095238095
0.000714285714 0.000142857143
0.000714285714 0.000190476190
0.000714285714 0.000238095238
0.000714285714 0.000285714286
0.000714285714 0.000333333333
0.000714285714 0.000380952381
0.000714285714 0.000428571429
0.000714285714 0.000476190476
0.000714285714 0.000523809524
0.000714285714 0.000571428571
0.000714285714 0.000619047619
0.000714285714 0.000666666667
0.000714285714 0.000714285714
0.000714285714 0.000761904762
0.000714285714 0.000809523810
0.000714285714 0.000857142857
0.000714285714 0.000904761905
0.000714285714 0.000952380952
0.000714285714 0.001000000000
0.000714285714 0.001047619048
0.000714285714 0.001095238095
0.000714285714 0.001142857143
0.000714285714 0.001190476190
0.000714285714 0.001238095238
0.000714285714 0.001285714286
0.000714285714 0.001333333333
0.000714285714 0.001380952381
0.000714285714 0.001428571429
0.000714285714 0.001476190476
0.000714285714 0.001523809524
0.000714285714 0.001571428571
0.000714285714 0.001619047619
0.000714285714 0.001666666667
0.000714285714 0.001714285714
0.000714285714 0.001761904762
0.000714285714 0.001809523810
0.000714285714 0.001857142857
0.000714285714 0.001904761905
0.000714285714 0.001952380952
0.000714285714 0.002000000000
0.000714285714 0.035301637755
0.000714285714 0.073383623210
0.000714285714 0.113506188896
0.000714285714 0.155014146033
0.000714285714 0.197583672716
0.000714285714 0.241018748334
0.000714285714 0.285187080642
0.000714285714 0.329993002221
0.000714285714 0.375363924425
0.000714285714 0.421242780245
0.000714285714 0.467583462777
0.000714285714 0.514347903027
0.000714285714 0.561504108464
0.000714285714 0.609024795931
0.000714285714 0.656886408743
0.000714285714 0.705068391357
0.000714285714 0.753552642079
0.000714285714 0.802323092133
0.000714285714 0.851365376462
0.000714285714 0.900666572453
0.000714285714 0.950214989876
0.000714285714 1.000000000000
0.000714285714 1.466666666667
0.000714285714 1.933333333333
0.000714285714 2.400000000000
0.000714285714 2.866666666667
0.000714285714 3.333333333333
0.000714285714 3.800000000000
0.000714285714 4.266666666667
0.000714285714 4.733333333333
0.000714285714 5.200000000000
0.000714285714 5.666666666667
0.000714285714 6.133333333333
0.000714285714 6.600000000000
0.000714285714 7.066666666667
0.000714285714 7.533333333333
0.000714285714 8.000000000000
0.000714285714 10.000000000000
0.000714285714 12.000000000000
0.000714285714 14.000000000000
0.000714285714 16.000000000000
0.000714285714 18.000000000000
0.000714285714 20.000000000000
0.000714285714 22.000000000000
0.000714285714 24.000000000000
0.000714285714 30.000000000000
0.000714285714 36.000000000000
0.000714285714 42.000000000000
0.000714285714 48.000000000000
0.000761904762 -48.000000000000
0.000761904762 -42.000000000000
0.000761904762 -36.000000000000
0.000761904762 -30.000000000000
0.000761904762 -24.000000000000
0.000761904762 -22.000000000000
0.000761904762 -20.000000000000
0.000761904762 -18.000000000000
0.000761904762 -16.000000000000
0.000761904762 -14.000000000000
0.000761904762 -12.000000000000
0.000761904762 -10.000000000000
0.000761904762 -8.000000000000
0.000761904762 -7.533333333333
0.000761904762 -7.066666666667
0.000761904762 -6.600000000000
0.000761904762 -6.133333333333
0.000761904762 -5.666666666667
0.000761904762 -5.200000000000
0.000761904762 -4.733333333333
0.000761904762 -4.266666666667
0.000761904762 -3.800000000000
0.000761904762 -3.333333333333
0.000761904762 -2.866666666667
0.000761904762 -2.400000000000
0.000761904762 -1.933333333333
0.000761904762 -1.466666666667
0.000761904762 -1.000000000000
0.000761904762 -0.950214989876
0.000761904762 -0.900666572453
0.000761904762 -0.851365376462
0.000761904762 -0.802323092133
0.000761904762 -0.753552642079
0.000761904762 -0.705068391357
0.000761904762 -0.656886408743
0.000761904762 -0.609024795931
0.000761904762 -0.561504108464
0.000761904762 -0.514347903027
0.000761904762 -0.467583462777
0.000761904762 -0.421242780245
0.000761904762 -0.375363924425
0.000761904762 -0.329993002221
0.000761904762 -0.285187080642
0.000761904762 -0.241018748334
0.000761904762 -0.197583672716
0.000761904762 -0.155014146033
0.000761904762 -0.113506188896
0.000761904762 -0.073383623210
0.000761904762 -0.035301637755
0.000761904762 -0.002000000000
0.000761904762 -0.001952380952
0.000761904762 -0.001904761905
0.000761904762 -0.001857142857
0.000761904762 -0.001809523810
0.000761904762 -0.001761904762
0.000761904762 -0.001714285714
0.000761904762 -0.001666666667
0.000761904762 -0.001619047619
0.000761904762 -0.001571428571
0.000761904762 -0.001523809524
0.000761904762 -0.001476190476
0.000761904762 -0.001428571429
0.000761904762 -0.001380952381
0.000761904762 -0.001333333333
0.000761904762 -0.001285714286
0.000761904762 -0.001238095238
0.000761904762 -0.001190476190
0.000761904762 -0.001142857143
0.000761904762 -0.001095238095
0.000761904762 -0.001047619048
0.000761904762 -0.001000000000
0.000761904762 -0.000952380952
0.000761904762 -0.000904761905
0.000761904762 -0.000857142857
0.000761904762 -0.000809523810
0.000761904762 -0.000761904762
0.000761904762 -0.000714285714
0.000761904762 -0.000666666667
0.000761904762 -0.000619047619
0.000761904762 -0.000571428571
0.000761904762 -0.000523809524
0.000761904762 -0.000476190476
0.000761904762 -0.000428571429
0.000761904762 -0.000380952381
0.000761904762 -0.000333333333
0.000761904762 -0.000285714286
0.000761904762 -0.000238095238
0.000761904762 -0.000190476190
0.000761904762 -0.000142857143
0.000761904762 -0.000095238095
0.000761904762 -0.000047619048
0.000761904762 0.000000000000
0.000761904762 0.000047619048
0.000761904762 0.000095238095
0.000761904762 0.000142857143
0.000761904762 0.000190476190
0.000761904762 0.000238095238
0.000761904762 0.000285714286
0.000761904762 0.000333333333
0.000761904762 0.000380952381
0.000761904762 0.000428571429
0.000761904762 0.000476190476
0.000761904762 0.000523809524
0.000761904762 0.000571428571
0.000761904762 0.000619047619
0.000761904762 0.000666666667
0.000761904762 0.000714285714
0.000761904762 0.000761904762
0.000761904762 0.000809523810
0.000761904762 0.000857142857
0.000761904762 0.000904761905
0.000761904762 0.000952380952
0.000761904762 0.001000000000
0.000761904762 0.001047619048
0.000761904762 0.001095238095
0.000761904762 0.001142857143
0.000761904762 0.001190476190
0.000761904762 0.001238095238
0.000761904762 0.001285714286
0.000761904762 0.001333333333
0.000761904762 0.001380952381
0.000761904762 0.001428571429
0.000761904762 0.001476190476
0.000761904762 0.001523809524
0.000761904762 0.001571428571
0.000761904762 0.001619047619
0.000761904762 0.001666666667
0.000761904762 0.001714285714
0.000761904762 0.001761904762
0.000761904762 0.001809523810
0.000761904762 0.001857142857
0.000761904762 0.001904761905
0.000761904762 0.001952380952
0.000761904762 0.002000000000
0.000761904762 0.035301637755
0.000761904762 0.073383623210
0.000761904762 0.113506188896
0.000761904762 0.155014146033
0.000761904762 0.197583672716
0.000761904762 0.241018748334
0.000761904762 0.285187080642
0.000761904762 0.329993002221
0.000761904762 0.375363924425
0.000761904762 0.421242780245
0.000761904762 0.467583462777
0.000761904762 0.514347903027
0.000761904762 0.561504108464
0.000761904762 0.609024795931
0.000761904762 0.656886408743
0.000761904762 0.705068391357
0.000761904762 0.753552642079
0.000761904762 0.802323092133
0.000761904762 0.851365376462
0.000761904762 0.900666572453
0.000761904762 0.950214989876
0.000761904762 1.000000000000
0.000761904762 1.466666666667
0.000761904762 1.933333333333
0.000761904762 2.400000000000
0.000761904762 2.866666666667
0.000761904762 3.333333333333
0.000761904762 3.800000000000
0.000761904762 4.266666666667
0.000761904762 4.733333333333
0.000761904762 5.200000000000
0.000761904762 5.666666666667
0.000761904762 6.133333333333
0.000761904762 6.600000000000
0.000761904762 7.066666666667
0.000761904762 7.533333333333
0.000761904762 8.000000000000
0.000761904762 10.000000000000
0.000761904762 12.000000000000
0.000761904762 14.000000000000
0.000761904762 16.000000000000
0.000761904762 18.000000000000
0.000761904762 20.000000000000
0.000761904762 22.000000000000
0.000761904762 24.000000000000
0.000761904762 30.000000000000
0.000761904762 36.000000000000
0.000761904762 42.000000000000
0.000761904762 48.000000000000
0.000809523810 -48.000000000000
0.000809523810 -42.000000000000
0.000809523810 -36.000000000000
0.000809523810 -30.000000000000
0.000809523810 -24.000000000000
0.000809523810 -22.000000000000
0.000809523810 -20.000000000000
0.000809523810 -18.000000000000
0.000809523810 -16.000000000000
0.000809523810 -14.000000000000
0.000809523810 -12.000000000000
0.000809523810 -10.000000000000
0.000809523810 -8.000000000000
0.000809523810 -7.533333333333
0.000809523810 -7.066666666667
0.000809523810 -6.600000000000
0.000809523810 -6.133333333333
0.000809523810 -5.666666666667
0.000809523810 -5.200000000000
0.000809523810 -4.733333333333
0.000809523810 -4.266666666667
0.000809523810 -3.800000000000
0.000809523810 -3.333333333333
0.000809523810 -2.866666666667
0.000809523810 -2.400000000000
0.000809523810 -1.933333333333
0.000809523810 -1.466666666667
0.000809523810 -1.000000000000
0.000809523810 -0.950214989876
0.000809523810 -0.900666572453
0.000809523810 -0.851365376462
0.000809523810 -0.802323092133
0.000809523810 -0.753552642079
0.000809523810 -0.705068391357
0.000809523810 -0.656886408743
0.000809523810 -0.609024795931
0.000809523810 -0.561504108464
0.000809523810 -0.514347903027
0.000809523810 -0.467583462777
0.000809523810 -0.421242780245
0.000809523810 -0.375363924425
0.000809523810 -0.329993002221
0.000809523810 -0.285187080642
0.000809523810 -0.241018748334
0.000809523810 -0.197583672716
0.000809523810 -0.155014146033
0.000809523810 -0.113506188896
0.000809523810 -0.073383623210
0.000809523810 -0.035301637755
0.000809523810 -0.002000000000
0.000809523810 -0.001952380952
0.000809523810 -0.001904761905
0.000809523810 -0.001857142857
0.000809523810 -0.001809523810
0.000809523810 -0.001761904762
0.000809523810 -0.001714285714
0.000809523810 -0.001666666667
0.000809523810 -0.001619047619
0.000809523810 -0.001571428571
0.000809523810 -0.001523809524
0.000809523810 -0.001476190476
0.000809523810 -0.001428571429
0.000809523810 -0.001380952381
0.000809523810 -0.001333333333
0.000809523810 -0.001285714286
0.000809523810 -0.001238095238
0.000809523810 -0.001190476190
0.000809523810 -0.001142857143
0.000809523810 -0.001095238095
0.000809523810 -0.001047619048
0.000809523810 -0.001000000000
0.000809523810 -0.000952380952
0.000809523810 -0.000904761905
0.000809523810 -0.000857142857
0.000809523810 -0.000809523810
0.000809523810 -0.000761904762
0.000809523810 -0.000714285714
0.000809523810 -0.000666666667
0.000809523810 -0.000619047619
0.000809523810 -0.000571428571
0.000809523810 -0.000523809524
0.000809523810 -0.000476190476
0.000809523810 -0.000428571429
0.000809523810 -0.000380952381
0.000809523810 -0.000333333333
0.000809523810 -0.000285714286
0.000809523810 -0.000238095238
0.000809523810 -0.000190476190
0.000809523810 -0.000142857143
0.000809523810 -0.000095238095
0.000809523810 -0.000047619048
0.000809523810 0.000000000000
0.000809523810 0.000047619048
0.000809523810 0.000095238095
0.000809523810 0.000142857143
0.000809523810 0.000190476190
0.000809523810 0.000238095238
0.000809523810 0.000285714286
0.000809523810 0.000333333333
0.000809523810 0.000380952381
0.000809523810 0.000428571429
0.000809523810 0.000476190476
0.000809523810 0.000523809524
0.000809523810 0.000571428571
0.000809523810 0.000619047619
0.000809523810 0.000666666667
0.000809523810 0.000714285714
0.000809523810 0.000761904762
0.000809523810 0.000809523810
0.000809523810 0.000857142857
0.000809523810 0.000904761905
0.000809523810 0.000952380952
0.000809523810 0.001000000000
0.000809523810 0.001047619048
0.000809523810 0.001095238095
0.000809523810 0.001142857143
0.000809523810 0.001190476190
0.000809523810 0.001238095238
0.000809523810 0.001285714286
0.000809523810 0.001333333333
0.000809523810 0.001380952381
0.000809523810 0.001428571429
0.000809523810 0.001476190476
0.000809523810 0.001523809524
0.000809523810 0.001571428571
0.000809523810 0.001619047619
0.000809523810 0.001666666667
0.000809523810 0.001714285714
0.000809523810 0.001761904762
0.000809523810 0.001809523810
0.000809523810 0.001857142857
0.000809523810 0.001904761905
0.000809523810 0.001952380952
0.000809523810 0.002000000000
0.000809523810 0.035301637755
0.000809523810 0.073383623210
0.000809523810 0.113506188896
0.000809523810 0.155014146033
0.000809523810 0.197583672716
0.000809523810 0.241018748334
0.000809523810 0.285187080642
0.000809523810 0.329993002221
0.000809523810 0.375363924425
0.000809523810 0.421242780245
0.000809523810 0.467583462777
0.000809523810 0.514347903027
0.000809523810 0.561504108464
0.000809523810 0.609024795931
0.000809523810 0.656886408743
0.000809523810 0.705068391357
0.000809523810 0.753552642079
0.000809523810 0.802323092133
0.000809523810 0.851365376462
0.000809523810 0.900666572453
0.000809523810 0.950214989876
0.000809523810 1.000000000000
0.000809523810 1.466666666667
0.000809523810 1.933333333333
0.000809523810 2.400000000000
0.000809523810 2.866666666667
0.000809523810 3.333333333333
0.000809523810 3.800000000000
0.000809523810 4.266666666667
0.000809523810 4.733333333333
0.000809523810 5.200000000000
0.000809523810 5.666666666667
0.000809523810 6.133333333333
0.000809523810 6.600000000000
0.000809523810 7.066666666667
0.000809523810 7.533333333333
0.000809523810 8.000000000000
0.000809523810 10.000000000000
0.000809523810 12.000000000000
0.000809523810 14.000000000000
0.000809523810 16.000000000000
0.000809523810 18.000000000000
0.000809523810 20.000000000000
0.000809523810 22.000000000000
0.000809523810 24.000000000000
0.000809523810 30.000000000000
0.000809523810 36.000000000000
0.000809523810 42.000000000000
0.000809523810 48.000000000000
0.000857142857 -48.000000000000
0.000857142857 -42.000000000000
0.000857142857 -36.000000000000
0.000857142857 -30.000000000000
0.000857142857 -24.000000000000
0.000857142857 -22.000000000000
0.000857142857 -20.000000000000
0.000857142857 -18.000000000000
0.000857142857 -16.000000000000
0.000857142857 -14.000000000000
0.000857142857 -12.000000000000
0.000857142857 -10.000000000000
0.000857142857 -8.000000000000
0.000857142857 -7.533333333333
0.000857142857 -7.066666666667
0.000857142857 -6.600000000000
0.000857142857 -6.133333333333
0.000857142857 -5.666666666667
0.000857142857 -5.200000000000
0.000857142857 -4.733333333333
0.000857142857 -4.266666666667
0.000857142857 -3.800000000000
0.000857142857 -3.333333333333
0.000857142857 -2.866666666667
0.000857142857 -2.400000000000
0.000857142857 -1.933333333333
0.000857142857 -1.466666666667
0.000857142857 -1.000000000000
0.000857142857 -0.950214989876
0.000857142857 -0.900666572453
0.000857142857 -0.851365376462
0.000857142857 -0.802323092133
0.000857142857 -0.753552642079
0.000857142857 -0.705068391357
0.000857142857 -0.656886408743
0.000857142857 -0.609024795931
0.000857142857 -0.561504108464
0.000857142857 -0.514347903027
0.000857142857 -0.467583462777
0.000857142857 -0.421242780245
0.000857142857 -0.375363924425
0.000857142857 -0.329993002221
0.000857142857 -0.285187080642
0.000857142857 -0.241018748334
0.000857142857 -0.197583672716
0.000857142857 -0.155014146033
0.000857142857 -0.113506188896
0.000857142857 -0.073383623210
0.000857142857 -0.035301637755
0.000857142857 -0.002000000000
0.000857142857 -0.001952380952
0.000857142857 -0.001904761905
0.000857142857 -0.001857142857
0.000857142857 -0.001809523810
0.000857142857 -0.001761904762
0.000857142857 -0.001714285714
0.000857142857 -0.001666666667
0.000857142857 -0.001619047619
0.000857142857 -0.001571428571
0.000857142857 -0.001523809524
0.000857142857 -0.001476190476
0.000857142857 -0.001428571429
0.000857142857 -0.001380952381
0.000857142857 -0.001333333333
0.000857142857 -0.001285714286
0.000857142857 -0.001238095238
0.000857142857 -0.001190476190
0.000857142857 -0.001142857143
0.000857142857 -0.001095238095
0.000857142857 -0.001047619048
0.000857142857 -0.001000000000
0.000857142857 -0.000952380952
0.000857142857 -0.000904761905
0.000857142857 -0.000857142857
0.000857142857 -0.000809523810
0.000857142857 -0.000761904762
0.000857142857 -0.000714285714
0.000857142857 -0.000666666667
0.000857142857 -0.000619047619
0.000857142857 -0.000571428571
0.000857142857 -0.000523809524
0.000857142857 -0.000476190476
0.000857142857 -0.000428571429
0.000857142857 -0.000380952381
0.000857142857 -0.000333333333
0.000857142857 -0.000285714286
0.000857142857 -0.000238095238
0.000857142857 -0.000190476190
0.000857142857 -0.000142857143
0.000857142857 -0.000095238095
0.000857142857 -0.000047619048
0.000857142857 0.000000000000
0.000857142857 0.000047619048
0.000857142857 0.000095238095
0.000857142857 0.000142857143
0.000857142857 0.000190476190
0.000857142857 0.000238095238
0.000857142857 0.000285714286
0.000857142857 0.000333333333
0.000857142857 0.000380952381
0.000857142857 0.000428571429
0.000857142857 0.000476190476
0.000857142857 0.000523809524
0.000857142857 0.000571428571
0.000857142857 0.000619047619
0.000857142857 0.000666666667
0.000857142857 0.000714285714
0.000857142857 0.000761904762
0.000857142857 0.000809523810
0.000857142857 0.000857142857
0.000857142857 0.000904761905
0.000857142857 0.000952380952
0.000857142857 0.001000000000
0.000857142857 0.001047619048
0.000857142857 0.001095238095
0.000857142857 0.001142857143
0.000857142857 0.001190476190
0.000857142857 0.001238095238
0.000857142857 0.001285714286
0.000857142857 0.001333333333
0.000857142857 0.001380952381
0.000857142857 0.001428571429
0.000857142857 0.001476190476
0.000857142857 0.001523809524
0.000857142857 0.001571428571
0.000857142857 0.001619047619
0.000857142857 0.001666666667
0.000857142857 0.001714285714
0.000857142857 0.001761904762
0.000857142857 0.001809523810
0.000857142857 0.001857142857
0.000857142857 0.001904761905
0.000857142857 0.001952380952
0.000857142857 0.002000000000
0.000857142857 0.035301637755
0.000857142857 0.073383623210
0.000857142857 0.113506188896
0.000857142857 0.155014146033
0.000857142857 0.197583672716
0.000857142857 0.241018748334
0.000857142857 0.285187080642
0.000857142857 0.329993002221
0.000857142857 0.375363924425
0.000857142857 0.421242780245
0.000857142857 0.467583462777
0.000857142857 0.514347903027
0.000857142857 0.561504108464
0.000857142857 0.609024795931
0.000857142857 0.656886408743
0.000857142857 0.705068391357
0.000857142857 0.753552642079
0.000857142857 0.802323092133
0.000857142857 0.851365376462
0.000857142857 0.900666572453
0.000857142857 0.950214989876
0.000857142857 1.000000000000
0.000857142857 1.466666666667
0.000857142857 1.933333333333
0.000857142857 2.400000000000
0.000857142857 2.866666666667
0.000857142857 3.333333333333
0.000857142857 3.800000000000
0.000857142857 4.266666666667
0.000857142857 4.733333333333
0.000857142857 5.200000000000
0.000857142857 5.666666666667
0.000857142857 6.133333333333
0.000857142857 6.600000000000
0.000857142857 7.066666666667
0.000857142857 7.533333333333
0.000857142857 8.000000000000
0.000857142857 10.000000000000
0.000857142857 12.000000000000
0.000857142857 14.000000000000
0.000857142857 16.000000000000
0.000857142857 18.000000000000
0.000857142857 20.000000000000
0.000857142857 22.000000000000
0.000857142857 24.000000000000
0.000857142857 30.000000000000
0.000857142857 36.000000000000
0.000857142857 42.000000000000
0.000857142857 48.000000000000
0.000904761905 -48.000000000000
0.000904761905 -42.000000000000
0.000904761905 -36.000000000000
0.000904761905 -30.000000000000
0.000904761905 -24.000000000000
0.000904761905 -22.000000000000
0.000904761905 -20.000000000000
0.000904761905 -18.000000000000
0.000904761905 -16.000000000000
0.000904761905 -14.000000000000
0.000904761905 -12.000000000000
0.000904761905 -10.000000000000
0.000904761905 -8.000000000000
0.000904761905 -7.533333333333
0.000904761905 -7.066666666667
0.000904761905 -6.600000000000
0.000904761905 -6.133333333333
0.000904761905 -5.666666666667
0.000904761905 -5.200000000000
0.000904761905 -4.733333333333
0.000904761905 -4.266666666667
0.000904761905 -3.800000000000
0.000904761905 -3.333333333333
0.000904761905 -2.866666666667
0.000904761905 -2.400000000000
0.000904761905 -1.933333333333
0.000904761905 -1.466666666667
0.000904761905 -1.000000000000
0.000904761905 -0.950214989876
0.000904761905 -0.900666572453
0.000904761905 -0.851365376462
0.000904761905 -0.802323092133
0.000904761905 -0.753552642079
0.000904761905 -0.705068391357
0.000904761905 -0.656886408743
0.000904761905 -0.609024795931
0.000904761905 -0.561504108464
0.000904761905 -0.514347903027
0.000904761905 -0.467583462777
0.000904761905 -0.421242780245
0.000904761905 -0.375363924425
0.000904761905 -0.329993002221
0.000904761905 -0.285187080642
0.000904761905 -0.241018748334
0.000904761905 -0.197583672716
0.000904761905 -0.155014146033
0.000904761905 -0.113506188896
0.000904761905 -0.073383623210
0.000904761905 -0.035301637755
0.000904761905 -0.002000000000
0.000904761905 -0.001952380952
0.000904761905 -0.001904761905
0.000904761905 -0.001857142857
0.000904761905 -0.001809523810
0.000904761905 -0.001761904762
0.000904761905 -0.001714285714
0.000904761905 -0.001666666667
0.000904761905 -0.001619047619
0.000904761905 -0.001571428571
0.000904761905 -0.001523809524
0.000904761905 -0.001476190476
0.000904761905 -0.001428571429
0.000904761905 -0.001380952381
0.000904761905 -0.001333333333
0.000904761905 -0.001285714286
0.000904761905 -0.001238095238
0.000904761905 -0.001190476190
0.000904761905 -0.001142857143
0.000904761905 -0.001095238095
0.000904761905 -0.001047619048
0.000904761905 -0.001000000000
0.000904761905 -0.000952380952
0.000904761905 -0.000904761905
0.000904761905 -0.000857142857
0.000904761905 -0.000809523810
0.000904761905 -0.000761904762
0.000904761905 -0.000714285714
0.000904761905 -0.000666666667
0.000904761905 -0.000619047619
0.000904761905 -0.000571428571
0.000904761905 -0.000523809524
0.000904761905 -0.000476190476
0.000904761905 -0.000428571429
0.000904761905 -0.000380952381
0.000904761905 -0.000333333333
0.000904761905 -0.000285714286
0.000904761905 -0.000238095238
0.000904761905 -0.000190476190
0.000904761905 -0.000142857143
0.000904761905 -0.000095238095
0.000904761905 -0.000047619048
0.000904761905 0.000000000000
0.000904761905 0.000047619048
0.000904761905 0.000095238095
0.000904761905 0.000142857143
0.000904761905 0.000190476190
0.000904761905 0.000238095238
0.000904761905 0.000285714286
0.000904761905 0.000333333333
0.000904761905 0.000380952381
0.000904761905 0.000428571429
0.000904761905 0.000476190476
0.000904761905 0.000523809524
0.000904761905 0.000571428571
0.000904761905 0.000619047619
0.000904761905 0.000666666667
0.000904761905 0.000714285714
0.000904761905 0.000761904762
0.000904761905 0.000809523810
0.000904761905 0.000857142857
0.000904761905 0.000904761905
0.000904761905 0.000952380952
0.000904761905 0.001000000000
0.000904761905 0.001047619048
0.000904761905 0.001095238095
0.000904761905 0.001142857143
0.000904761905 0.001190476190
0.000904761905 0.001238095238
0.000904761905 0.001285714286
0.000904761905 0.001333333333
0.000904761905 0.001380952381
0.000904761905 0.001428571429
0.000904761905 0.001476190476
0.000904761905 0.001523809524
0.000904761905 0.001571428571
0.000904761905 0.001619047619
0.000904761905 0.001666666667
0.000904761905 0.001714285714
0.000904761905 0.001761904762
0.000904761905 0.001809523810
0.000904761905 0.001857142857
0.000904761905 0.001904761905
0.000904761905 0.001952380952
0.000904761905 0.002000000000
0.000904761905 0.035301637755
0.000904761905 0.073383623210
0.000904761905 0.113506188896
0.000904761905 0.155014146033
0.000904761905 0.197583672716
0.000904761905 0.241018748334
0.000904761905 0.285187080642
0.000904761905 0.329993002221
0.000904761905 0.375363924425
0.000904761905 0.421242780245
0.000904761905 0.467583462777
0.000904761905 0.514347903027
0.000904761905 0.561504108464
0.000904761905 0.609024795931
0.000904761905 0.656886408743
0.000904761905 0.705068391357
0.000904761905 0.753552642079
0.000904761905 0.802323092133
0.000904761905 0.851365376462
0.000904761905 0.900666572453
0.000904761905 0.950214989876
0.000904761905 1.000000000000
0.000904761905 1.466666666667
0.000904761905 1.933333333333
0.000904761905 2.400000000000
0.000904761905 2.866666666667
0.000904761905 3.333333333333
0.000904761905 3.800000000000
0.000904761905 4.266666666667
0.000904761905 4.733333333333
0.000904761905 5.200000000000
0.000904761905 5.666666666667
0.000904761905 6.133333333333
0.000904761905 6.600000000000
0.000904761905 7.066666666667
0.000904761905 7.533333333333
0.000904761905 8.000000000000
0.000904761905 10.000000000000
0.000904761905 12.000000000000
0.000904761905 14.000000000000
0.000904761905 16.000000000000
0.000904761905 18.000000000000
0.000904761905 20.000000000000
0.000904761905 22.000000000000
0.000904761905 24.000000000000
0.000904761905 30.000000000000
0.000904761905 36.000000000000
0.000904761905 42.000000000000
0.000904761905 48.000000000000
0.000952380952 -48.000000000000
0.000952380952 -42.000000000000
0.000952380952 -36.000000000000
0.000952380952 -30.000000000000
0.000952380952 -24.000000000000
0.000952380952 -22.000000000000
0.000952380952 -20.000000000000
0.000952380952 -18.000000000000
0.000952380952 -16.000000000000
0.000952380952 -14.000000000000
0.000952380952 -12.000000000000
0.000952380952 -10.000000000000
0.000952380952 -8.000000000000
0.000952380952 -7.533333333333
0.000952380952 -7.066666666667
0.000952380952 -6.600000000000
0.000952380952 -6.133333333333
0.000952380952 -5.666666666667
0.000952380952 -5.200000000000
0.000952380952 -4.733333333333
0.000952380952 -4.266666666667
0.000952380952 -3.800000000000
0.000952380952 -3.333333333333
0.000952380952 -2.866666666667
0.000952380952 -2.400000000000
0.000952380952 -1.933333333333
0.000952380952 -1.466666666667
0.000952380952 -1.000000000000
0.000952380952 -0.950214989876
0.000952380952 -0.900666572453
0.000952380952 -0.851365376462
0.000952380952 -0.802323092133
0.000952380952 -0.753552642079
0.000952380952 -0.705068391357
0.000952380952 -0.656886408743
0.000952380952 -0.609024795931
0.000952380952 -0.561504108464
0.000952380952 -0.514347903027
0.000952380952 -0.467583462777
0.000952380952 -0.421242780245
0.000952380952 -0.375363924425
0.000952380952 -0.329993002221
0.000952380952 -0.285187080642
0.000952380952 -0.241018748334
0.000952380952 -0.197583672716
0.000952380952 -0.155014146033
0.000952380952 -0.113506188896
0.000952380952 -0.073383623210
0.000952380952 -0.035301637755
0.000952380952 -0.002000000000
0.000952380952 -0.001952380952
0.000952380952 -0.001904761905
0.000952380952 -0.001857142857
0.000952380952 -0.001809523810
0.000952380952 -0.001761904762
0.000952380952 -0.001714285714
0.000952380952 -0.001666666667
0.000952380952 -0.001619047619
0.000952380952 -0.001571428571
0.000952380952 -0.001523809524
0.000952380952 -0.001476190476
0.000952380952 -0.001428571429
0.000952380952 -0.001380952381
0.000952380952 -0.001333333333
0.000952380952 -0.001285714286
0.000952380952 -0.001238095238
0.000952380952 -0.001190476190
0.000952380952 -0.001142857143
0.000952380952 -0.001095238095
0.000952380952 -0.001047619048
0.000952380952 -0.001000000000
0.000952380952 -0.000952380952
0.000952380952 -0.000904761905
0.000952380952 -0.000857142857
0.000952380952 -0.000809523810
0.000952380952 -0.000761904762
0.000952380952 -0.000714285714
0.000952380952 -0.000666666667
0.000952380952 -0.000619047619
0.000952380952 -0.000571428571
0.000952380952 -0.000523809524
0.000952380952 -0.000476190476
0.000952380952 -0.000428571429
0.000952380952 -0.000380952381
0.000952380952 -0.000333333333
0.000952380952 -0.000285714286
0.000952380952 -0.000238095238
0.000952380952 -0.000190476190
0.000952380952 -0.000142857143
0.000952380952 -0.000095238095
0.000952380952 -0.000047619048
0.000952380952 0.000000000000
0.000952380952 0.000047619048
0.000952380952 0.000095238095
0.000952380952 0.000142857143
0.000952380952 0.000190476190
0.000952380952 0.000238095238
0.000952380952 0.000285714286
0.000952380952 0.000333333333
0.000952380952 0.000380952381
0.000952380952 0.000428571429
0.000952380952 0.000476190476
0.000952380952 0.000523809524
0.000952380952 0.000571428571
0.000952380952 0.000619047619
0.000952380952 0.000666666667
0.000952380952 0.000714285714
0.000952380952 0.000761904762
0.000952380952 0.000809523810
0.000952380952 0.000857142857
0.000952380952 0.000904761905
0.000952380952 0.000952380952
0.000952380952 0.001000000000
0.000952380952 0.001047619048
0.000952380952 0.001095238095
0.000952380952 0.001142857143
0.000952380952 0.001190476190
0.000952380952 0.001238095238
0.000952380952 0.001285714286
0.000952380952 0.001333333333
0.000952380952 0.001380952381
0.000952380952 0.001428571429
0.000952380952 0.001476190476
0.000952380952 0.001523809524
0.000952380952 0.001571428571
0.000952380952 0.001619047619
0.000952380952 0.001666666667
0.000952380952 0.001714285714
0.000952380952 0.001761904762
0.000952380952 0.001809523810
0.000952380952 0.001857142857
0.000952380952 0.001904761905
0.000952380952 0.001952380952
0.000952380952 0.002000000000
0.000952380952 0.035301637755
0.000952380952 0.073383623210
0.000952380952 0.113506188896
0.000952380952 0.155014146033
0.000952380952 0.197583672716
0.000952380952 0.241018748334
0.000952380952 0.285187080642
0.000952380952 0.329993002221
0.000952380952 0.375363924425
0.000952380952 0.421242780245
0.000952380952 0.467583462777
0.000952380952 0.514347903027
0.000952380952 0.561504108464
0.000952380952 0.609024795931
0.000952380952 0.656886408743
0.000952380952 0.705068391357
0.000952380952 0.753552642079
0.000952380952 0.802323092133
0.000952380952 0.851365376462
0.000952380952 0.900666572453
0.000952380952 0.950214989876
0.000952380952 1.000000000000
0.000952380952 1.466666666667
0.000952380952 1.933333333333
0.000952380952 2.400000000000
0.000952380952 2.866666666667
0.000952380952 3.333333333333
0.000952380952 3.800000000000
0.000952380952 4.266666666667
0.000952380952 4.733333333333
0.000952380952 5.200000000000
0.000952380952 5.666666666667
0.000952380952 6.133333333333
0.000952380952 6.600000000000
0.000952380952 7.066666666667
0.000952380952 7.533333333333
0.000952380952 8.000000000000
0.000952380952 10.000000000000
0.000952380952 12.000000000000
0.000952380952 14.000000000000
0.000952380952 16.000000000000
0.000952380952 18.000000000000
0.000952380952 20.000000000000
0.000952380952 22.000000000000
0.000952380952 24.000000000000
0.000952380952 30.000000000000
0.000952380952 36.000000000000
0.000952380952 42.000000000000
0.000952380952 48.000000000000
0.001000000000 -48.000000000000
0.001000000000 -42.000000000000
0.001000000000 -36.000000000000
0.001000000000 -30.000000000000
0.001000000000 -24.000000000000
0.001000000000 -22.000000000000
0.001000000000 -20.000000000000
0.001000000000 -18.000000000000
0.001000000000 -16.000000000000
0.001000000000 -14.000000000000
0.001000000000 -12.000000000000
0.001000000000 -10.000000000000
0.001000000000 -8.000000000000
0.001000000000 -7.533333333333
0.001000000000 -7.066666666667
0.001000000000 -6.600000000000
0.001000000000 -6.133333333333
0.001000000000 -5.666666666667
0.001000000000 -5.200000000000
0.001000000000 -4.733333333333
0.001000000000 -4.266666666667
0.001000000000 -3.800000000000
0.001000000000 -3.333333333333
0.001000000000 -2.866666666667
0.001000000000 -2.400000000000
0.001000000000 -1.933333333333
0.001000000000 -1.466666666667
0.001000000000 -1.000000000000
0.001000000000 -0.950214989876
0.001000000000 -0.900666572453
0.001000000000 -0.851365376462
0.001000000000 -0.802323092133
0.001000000000 -0.753552642079
0.001000000000 -0.705068391357
0.001000000000 -0.656886408743
0.001000000000 -0.609024795931
0.001000000000 -0.561504108464
0.001000000000 -0.514347903027
0.001000000000 -0.467583462777
0.001000000000 -0.421242780245
0.001000000000 -0.375363924425
0.001000000000 -0.329993002221
0.001000000000 -0.285187080642
0.001000000000 -0.241018748334
0.001000000000 -0.197583672716
0.001000000000 -0.155014146033
0.001000000000 -0.113506188896
0.001000000000 -0.073383623210
0.001000000000 -0.035301637755
0.001000000000 -0.002000000000
0.001000000000 -0.001952380952
0.001000000000 -0.001904761905
0.001000000000 -0.001857142857
0.001000000000 -0.001809523810
0.001000000000 -0.001761904762
0.001000000000 -0.001714285714
0.001000000000 -0.001666666667
0.001000000000 -0.001619047619
0.001000000000 -0.001571428571
0.001000000000 -0.001523809524
0.001000000000 -0.001476190476
0.001000000000 -0.001428571429
0.001000000000 -0.001380952381
0.001000000000 -0.001333333333
0.001000000000 -0.001285714286
0.001000000000 -0.001238095238
0.001000000000 -0.001190476190
0.001000000000 -0.001142857143
0.001000000000 -0.001095238095
0.001000000000 -0.001047619048
0.001000000000 -0.001000000000
0.001000000000 -0.000952380952
0.001000000000 -0.000904761905
